 2.07200000e+03
 2.13500000e+03
 2.20000000e+03
 2.25100000e+03
 2.25500000e+03
 2.24400000e+03
 2.20700000e+03
 2.16400000e+03
 2.09900000e+03
 2.02200000e+03
 1.95300000e+03
 1.88700000e+03
 1.82500000e+03
 1.78300000e+03
 1.75800000e+03
 1.76100000e+03
 1.78400000e+03
 1.81800000e+03
 1.88800000e+03
 1.97500000e+03
 2.05000000e+03
 2.11700000e+03
 2.17400000e+03
 2.21100000e+03
 2.24000000e+03
 2.23100000e+03
 2.20900000e+03
 2.17800000e+03
 2.11500000e+03
 2.03600000e+03
 1.97100000e+03
 1.90900000e+03
 1.84900000e+03
 1.78600000e+03
 1.74800000e+03
 1.75900000e+03
 1.77800000e+03
 1.81500000e+03
 1.89000000e+03
 1.97700000e+03
 2.04200000e+03
 2.13400000e+03
 2.21300000e+03
 2.25900000e+03
 2.26900000e+03
 2.27300000e+03
 2.26000000e+03
 2.22700000e+03
 2.16900000e+03
 2.09900000e+03
 2.01800000e+03
 1.95600000e+03
 1.92300000e+03
 1.89600000e+03
 1.89900000e+03
 1.94300000e+03
 2.01700000e+03
 2.10200000e+03
 2.23100000e+03
 2.36900000e+03
 2.46200000e+03
 2.57100000e+03
 2.67100000e+03
 2.77200000e+03
 2.86500000e+03
 2.92600000e+03
 2.92200000e+03
 2.90600000e+03
 2.83700000e+03
 2.74700000e+03
 2.65000000e+03
 2.53900000e+03
 2.45700000e+03
 2.37700000e+03
 2.31300000e+03
 2.28000000e+03
 2.28100000e+03
 2.29100000e+03
 2.33800000e+03
 2.37100000e+03
 2.36000000e+03
 2.37600000e+03
 2.38800000e+03
 2.40100000e+03
 2.39800000e+03
 2.34500000e+03
 2.31600000e+03
 2.27200000e+03
 2.19000000e+03
 2.11300000e+03
 2.03200000e+03
 1.95900000e+03
 1.88800000e+03
 1.84600000e+03
 1.84400000e+03
 1.83700000e+03
 1.85800000e+03
 1.89500000e+03
 1.95000000e+03
 2.01500000e+03
 2.07000000e+03
 2.13500000e+03
 2.19300000e+03
 2.23100000e+03
 2.27000000e+03
 2.26100000e+03
 2.23000000e+03
 2.19500000e+03
 2.12500000e+03
 2.04500000e+03
 1.96900000e+03
 1.90300000e+03
 1.83700000e+03
 1.77000000e+03
 1.75200000e+03
 1.77400000e+03
 1.79300000e+03
 1.82000000e+03
 1.88400000e+03
 1.97000000e+03
 2.04300000e+03
 2.11600000e+03
 2.15700000e+03
 2.22700000e+03
 2.27600000e+03
 2.25300000e+03
 2.22800000e+03
 2.20400000e+03
 2.15600000e+03
 2.06500000e+03
 1.96600000e+03
 1.89000000e+03
 1.83400000e+03
 1.79800000e+03
 1.75100000e+03
 1.75400000e+03
 1.77400000e+03
 1.80400000e+03
 1.89100000e+03
 1.97000000e+03
 2.06000000e+03
 2.13400000e+03
 2.17800000e+03
 2.23100000e+03
 2.26600000e+03
 2.26200000e+03
 2.24100000e+03
 2.20900000e+03
 2.12700000e+03
 2.04800000e+03
 1.98000000e+03
 1.90700000e+03
 1.84500000e+03
 1.78400000e+03
 1.75200000e+03
 1.77000000e+03
 1.79200000e+03
 1.82400000e+03
 1.89700000e+03
 1.98700000e+03
 2.05900000e+03
 2.14200000e+03
 2.19600000e+03
 2.24000000e+03
 2.27200000e+03
 2.26600000e+03
 2.24700000e+03
 2.22700000e+03
 2.16700000e+03
 2.08300000e+03
 1.99800000e+03
 1.92200000e+03
 1.86200000e+03
 1.81400000e+03
 1.80000000e+03
 1.81100000e+03
 1.81800000e+03
 1.84800000e+03
 1.92200000e+03
 2.01500000e+03
 2.07500000e+03
 2.15100000e+03
 2.21700000e+03
 2.26700000e+03
 2.28900000e+03
 2.27100000e+03
 2.27400000e+03
 2.24900000e+03
 2.19000000e+03
 2.10400000e+03
 2.02200000e+03
 1.93600000e+03
 1.87600000e+03
 1.82000000e+03
 1.80500000e+03
 1.80200000e+03
 1.83400000e+03
 1.87100000e+03
 1.93600000e+03
 2.01300000e+03
 2.10200000e+03
 2.18200000e+03
 2.24800000e+03
 2.30100000e+03
 2.34400000e+03
 2.34300000e+03
 2.32000000e+03
 2.29300000e+03
 2.22600000e+03
 2.16000000e+03
 2.06100000e+03
 1.98200000e+03
 1.93300000e+03
 1.87900000e+03
 1.84600000e+03
 1.86300000e+03
 1.88500000e+03
 1.92100000e+03
 1.98100000e+03
 2.06300000e+03
 2.13500000e+03
 2.21900000e+03
 2.27900000e+03
 2.32000000e+03
 2.36500000e+03
 2.37100000e+03
 2.34500000e+03
 2.31700000e+03
 2.28000000e+03
 2.21200000e+03
 2.11000000e+03
 2.03000000e+03
 1.98700000e+03
 1.93700000e+03
 1.90300000e+03
 1.90600000e+03
 1.91600000e+03
 1.94600000e+03
 2.03100000e+03
 2.12200000e+03
 2.19600000e+03
 2.26100000e+03
 2.31200000e+03
 2.36400000e+03
 2.39900000e+03
 2.40900000e+03
 2.41500000e+03
 2.38100000e+03
 2.31700000e+03
 2.24800000e+03
 2.17300000e+03
 2.10200000e+03
 2.05600000e+03
 1.97600000e+03
 1.96100000e+03
 1.96800000e+03
 1.99900000e+03
 2.02700000e+03
 2.10000000e+03
 2.18900000e+03
 2.27200000e+03
 2.34700000e+03
 2.38500000e+03
 2.43500000e+03
 2.48100000e+03
 2.47700000e+03
 2.45200000e+03
 2.43000000e+03
 2.37000000e+03
 2.29000000e+03
 2.20400000e+03
 2.13100000e+03
 2.05600000e+03
 2.02000000e+03
 1.99400000e+03
 1.99500000e+03
 2.00800000e+03
 2.05700000e+03
 2.14300000e+03
 2.21800000e+03
 2.29700000e+03
 2.35900000e+03
 2.42200000e+03
 2.47200000e+03
 2.49600000e+03
 2.49700000e+03
 2.47800000e+03
 2.45800000e+03
 2.39500000e+03
 2.34200000e+03
 2.26200000e+03
 2.19200000e+03
 2.13400000e+03
 2.07700000e+03
 2.03600000e+03
 2.04500000e+03
 2.06100000e+03
 2.08500000e+03
 2.14800000e+03
 2.23300000e+03
 2.30300000e+03
 2.37300000e+03
 2.42300000e+03
 2.47100000e+03
 2.50600000e+03
 2.51500000e+03
 2.49000000e+03
 2.44700000e+03
 2.38300000e+03
 2.31600000e+03
 2.23800000e+03
 2.16700000e+03
 2.10400000e+03
 2.05400000e+03
 2.02300000e+03
 2.01700000e+03
 2.03600000e+03
 2.06300000e+03
 2.12800000e+03
 2.20700000e+03
 2.28800000e+03
 2.34900000e+03
 2.40200000e+03
 2.45400000e+03
 2.47800000e+03
 2.47700000e+03
 2.45100000e+03
 2.42200000e+03
 2.35400000e+03
 2.27600000e+03
 2.20400000e+03
 2.13200000e+03
 2.07600000e+03
 2.00600000e+03
 1.96700000e+03
 1.96500000e+03
 1.99200000e+03
 2.01700000e+03
 2.07800000e+03
 2.14500000e+03
 2.22400000e+03
 2.28900000e+03
 2.35000000e+03
 2.40800000e+03
 2.44800000e+03
 2.44800000e+03
 2.42500000e+03
 2.40200000e+03
 2.33700000e+03
 2.25200000e+03
 2.16400000e+03
 2.09000000e+03
 2.02700000e+03
 1.96800000e+03
 1.93200000e+03
 1.96000000e+03
 1.98500000e+03
 1.98000000e+03
 2.05400000e+03
 2.11800000e+03
 2.20000000e+03
 2.25400000e+03
 2.29900000e+03
 2.37600000e+03
 2.40800000e+03
 2.39900000e+03
 2.39300000e+03
 2.36100000e+03
 2.29200000e+03
 2.22400000e+03
 2.12700000e+03
 2.05100000e+03
 2.00500000e+03
 1.94800000e+03
 1.93100000e+03
 1.92200000e+03
 1.94200000e+03
 1.96900000e+03
 2.01400000e+03
 2.07800000e+03
 2.17200000e+03
 2.25200000e+03
 2.31100000e+03
 2.36900000e+03
 2.41800000e+03
 2.43700000e+03
 2.39700000e+03
 2.35600000e+03
 2.29700000e+03
 2.24500000e+03
 2.15000000e+03
 2.06000000e+03
 1.98800000e+03
 1.93600000e+03
 1.92700000e+03
 1.93800000e+03
 1.91900000e+03
 1.92800000e+03
 1.99700000e+03
 2.07700000e+03
 2.18200000e+03
 2.26500000e+03
 2.32000000e+03
 2.38500000e+03
 2.40700000e+03
 2.39800000e+03
 2.37700000e+03
 2.36400000e+03
 2.30500000e+03
 2.21700000e+03
 2.13400000e+03
 2.06600000e+03
 2.00600000e+03
 1.95600000e+03
 1.92700000e+03
 1.90300000e+03
 1.91500000e+03
 1.94300000e+03
 2.01300000e+03
 2.08300000e+03
 2.18300000e+03
 2.25200000e+03
 2.31500000e+03
 2.36000000e+03
 2.38100000e+03
 2.40600000e+03
 2.38000000e+03
 2.35000000e+03
 2.27700000e+03
 2.20000000e+03
 2.13000000e+03
 2.04700000e+03
 2.00700000e+03
 1.94900000e+03
 1.89400000e+03
 1.88800000e+03
 1.90200000e+03
 1.94300000e+03
 2.02100000e+03
 2.08700000e+03
 2.17300000e+03
 2.25100000e+03
 2.30600000e+03
 2.36700000e+03
 2.40100000e+03
 2.39600000e+03
 2.37600000e+03
 2.34200000e+03
 2.28300000e+03
 2.23900000e+03
 2.16600000e+03
 2.07500000e+03
 2.00900000e+03
 1.94000000e+03
 1.90900000e+03
 1.89900000e+03
 1.92000000e+03
 1.95900000e+03
 2.04900000e+03
 2.11500000e+03
 2.18000000e+03
 2.25300000e+03
 2.32600000e+03
 2.36900000e+03
 2.40400000e+03
 2.42000000e+03
 2.40300000e+03
 2.37800000e+03
 2.30400000e+03
 2.23300000e+03
 2.14700000e+03
 2.06900000e+03
 2.00800000e+03
 1.95400000e+03
 1.93100000e+03
 1.91800000e+03
 1.92400000e+03
 1.94000000e+03
 2.01500000e+03
 2.09500000e+03
 2.19500000e+03
 2.26400000e+03
 2.32500000e+03
 2.38200000e+03
 2.42100000e+03
 2.42900000e+03
 2.39600000e+03
 2.36600000e+03
 2.30100000e+03
 2.24700000e+03
 2.17300000e+03
 2.09800000e+03
 2.02700000e+03
 1.95300000e+03
 1.91700000e+03
 1.91800000e+03
 1.93200000e+03
 1.96900000e+03
 2.06300000e+03
 2.12700000e+03
 2.20600000e+03
 2.26400000e+03
 2.32900000e+03
 2.38900000e+03
 2.42800000e+03
 2.43700000e+03
 2.42000000e+03
 2.39900000e+03
 2.33300000e+03
 2.27100000e+03
 2.19100000e+03
 2.10400000e+03
 2.02700000e+03
 1.98500000e+03
 1.95600000e+03
 1.94100000e+03
 1.95700000e+03
 1.97800000e+03
 2.03100000e+03
 2.10300000e+03
 2.19200000e+03
 2.26100000e+03
 2.33500000e+03
 2.38600000e+03
 2.42600000e+03
 2.45300000e+03
 2.45300000e+03
 2.42700000e+03
 2.35300000e+03
 2.27100000e+03
 2.18000000e+03
 2.11400000e+03
 2.04200000e+03
 1.99500000e+03
 1.95600000e+03
 1.95700000e+03
 1.96500000e+03
 1.99200000e+03
 2.05500000e+03
 2.12700000e+03
 2.20800000e+03
 2.28200000e+03
 2.34700000e+03
 2.42000000e+03
 2.46100000e+03
 2.45100000e+03
 2.42900000e+03
 2.41500000e+03
 2.36700000e+03
 2.31200000e+03
 2.21600000e+03
 2.15200000e+03
 2.08500000e+03
 2.02100000e+03
 1.97800000e+03
 1.97100000e+03
 2.00000000e+03
 2.02700000e+03
 2.07300000e+03
 2.14700000e+03
 2.24500000e+03
 2.31000000e+03
 2.36900000e+03
 2.43400000e+03
 2.47000000e+03
 2.48000000e+03
 2.46700000e+03
 2.44700000e+03
 2.36800000e+03
 2.29800000e+03
 2.21000000e+03
 2.14800000e+03
 2.09900000e+03
 2.04700000e+03
 1.98900000e+03
 1.97300000e+03
 1.97900000e+03
 2.00500000e+03
 2.07600000e+03
 2.14400000e+03
 2.24400000e+03
 2.32400000e+03
 2.38500000e+03
 2.43600000e+03
 2.46800000e+03
 2.47300000e+03
 2.46700000e+03
 2.44800000e+03
 2.39400000e+03
 2.33000000e+03
 2.25100000e+03
 2.17800000e+03
 2.11200000e+03
 2.05400000e+03
 2.01700000e+03
 1.99500000e+03
 2.01800000e+03
 2.05100000e+03
 2.09700000e+03
 2.16000000e+03
 2.25400000e+03
 2.32300000e+03
 2.39300000e+03
 2.45600000e+03
 2.48800000e+03
 2.49500000e+03
 2.50300000e+03
 2.48800000e+03
 2.41500000e+03
 2.35500000e+03
 2.27600000e+03
 2.21200000e+03
 2.13900000e+03
 2.06300000e+03
 2.02300000e+03
 2.03400000e+03
 2.06400000e+03
 2.08000000e+03
 2.12000000e+03
 2.20100000e+03
 2.28900000e+03
 2.35900000e+03
 2.43100000e+03
 2.49600000e+03
 2.53100000e+03
 2.54400000e+03
 2.53500000e+03
 2.51400000e+03
 2.45300000e+03
 2.38100000e+03
 2.29600000e+03
 2.23200000e+03
 2.17300000e+03
 2.10800000e+03
 2.05900000e+03
 2.05600000e+03
 2.07600000e+03
 2.08900000e+03
 2.14600000e+03
 2.23400000e+03
 2.34600000e+03
 2.40500000e+03
 2.45600000e+03
 2.51700000e+03
 2.55900000e+03
 2.58600000e+03
 2.57500000e+03
 2.54700000e+03
 2.47700000e+03
 2.41100000e+03
 2.30900000e+03
 2.24700000e+03
 2.17200000e+03
 2.11800000e+03
 2.07200000e+03
 2.06000000e+03
 2.07000000e+03
 2.06300000e+03
 2.12900000e+03
 2.21400000e+03
 2.29100000e+03
 2.35500000e+03
 2.42400000e+03
 2.47500000e+03
 2.52600000e+03
 2.54200000e+03
 2.52400000e+03
 2.51400000e+03
 2.45400000e+03
 2.38800000e+03
 2.30700000e+03
 2.24500000e+03
 2.16000000e+03
 2.09600000e+03
 2.03800000e+03
 2.02100000e+03
 2.04600000e+03
 2.07200000e+03
 2.12100000e+03
 2.17700000e+03
 2.25900000e+03
 2.32800000e+03
 2.40300000e+03
 2.46200000e+03
 2.49900000e+03
 2.51000000e+03
 2.49700000e+03
 2.47100000e+03
 2.43000000e+03
 2.37400000e+03
 2.28400000e+03
 2.20200000e+03
 2.12100000e+03
 2.07000000e+03
 2.04300000e+03
 2.03200000e+03
 2.03400000e+03
 2.06100000e+03
 2.11300000e+03
 2.17300000e+03
 2.27200000e+03
 2.34100000e+03
 2.41300000e+03
 2.47500000e+03
 2.52100000e+03
 2.52400000e+03
 2.50600000e+03
 2.48100000e+03
 2.42700000e+03
 2.36500000e+03
 2.28700000e+03
 2.21900000e+03
 2.13600000e+03
 2.06000000e+03
 2.01300000e+03
 2.00900000e+03
 2.02100000e+03
 2.04300000e+03
 2.10200000e+03
 2.15800000e+03
 2.27000000e+03
 2.35100000e+03
 2.44600000e+03
 2.50100000e+03
 2.55100000e+03
 2.59100000e+03
 2.58400000e+03
 2.55300000e+03
 2.51400000e+03
 2.47100000e+03
 2.39100000e+03
 2.33200000e+03
 2.26200000e+03
 2.19700000e+03
 2.18300000e+03
 2.20000000e+03
 2.24800000e+03
 2.31000000e+03
 2.39800000e+03
 2.49900000e+03
 2.63400000e+03
 2.75500000e+03
 2.87900000e+03
 2.96400000e+03
 3.03100000e+03
 3.09100000e+03
 3.13700000e+03
 3.19300000e+03
 3.16300000e+03
 3.10000000e+03
 3.01200000e+03
 2.92500000e+03
 2.82400000e+03
 2.74000000e+03
 2.67400000e+03
 2.62100000e+03
 2.59700000e+03
 2.57500000e+03
 2.61000000e+03
 2.65500000e+03
 2.72200000e+03
 2.76000000e+03
 2.77300000e+03
 2.79300000e+03
 2.79700000e+03
 2.78600000e+03
 2.73400000e+03
 2.66500000e+03
 2.56700000e+03
 2.47800000e+03
 2.39800000e+03
 2.32000000e+03
 2.25600000e+03
 2.20900000e+03
 2.16000000e+03
 2.13700000e+03
 2.14800000e+03
 2.17700000e+03
 2.23600000e+03
 2.29500000e+03
 2.38000000e+03
 2.44800000e+03
 2.52000000e+03
 2.57500000e+03
 2.61300000e+03
 2.62200000e+03
 2.61200000e+03
 2.57700000e+03
 2.53000000e+03
 2.46300000e+03
 2.38400000e+03
 2.32300000e+03
 2.24500000e+03
 2.17700000e+03
 2.12700000e+03
 2.08900000e+03
 2.09800000e+03
 2.13100000e+03
 2.18100000e+03
 2.25300000e+03
 2.33400000e+03
 2.39400000e+03
 2.46100000e+03
 2.52900000e+03
 2.57500000e+03
 2.60300000e+03
 2.59400000e+03
 2.57000000e+03
 2.51800000e+03
 2.45800000e+03
 2.36600000e+03
 2.28500000e+03
 2.21300000e+03
 2.16100000e+03
 2.10800000e+03
 2.08000000e+03
 2.09700000e+03
 2.12700000e+03
 2.18300000e+03
 2.25500000e+03
 2.34100000e+03
 2.40200000e+03
 2.46400000e+03
 2.53600000e+03
 2.60300000e+03
 2.62800000e+03
 2.61600000e+03
 2.60600000e+03
 2.53800000e+03
 2.47000000e+03
 2.39000000e+03
 2.32800000e+03
 2.25600000e+03
 2.17800000e+03
 2.10600000e+03
 2.08500000e+03
 2.11500000e+03
 2.14700000e+03
 2.19200000e+03
 2.25100000e+03
 2.34200000e+03
 2.42000000e+03
 2.49500000e+03
 2.56500000e+03
 2.59700000e+03
 2.60000000e+03
 2.59100000e+03
 2.57300000e+03
 2.54500000e+03
 2.49500000e+03
 2.39700000e+03
 2.33100000e+03
 2.26300000e+03
 2.17900000e+03
 2.13500000e+03
 2.11900000e+03
 2.13900000e+03
 2.16200000e+03
 2.20100000e+03
 2.26200000e+03
 2.35200000e+03
 2.42600000e+03
 2.49700000e+03
 2.54800000e+03
 2.59200000e+03
 2.61700000e+03
 2.60900000e+03
 2.58700000e+03
 2.54700000e+03
 2.49800000e+03
 2.41700000e+03
 2.34000000e+03
 2.26000000e+03
 2.19700000e+03
 2.14600000e+03
 2.11000000e+03
 2.13400000e+03
 2.17000000e+03
 2.21900000e+03
 2.28100000e+03
 2.36000000e+03
 2.42200000e+03
 2.49200000e+03
 2.55400000e+03
 2.60300000e+03
 2.62400000e+03
 2.62000000e+03
 2.59300000e+03
 2.54200000e+03
 2.49500000e+03
 2.42400000e+03
 2.35200000e+03
 2.27400000e+03
 2.21500000e+03
 2.15800000e+03
 2.13800000e+03
 2.14800000e+03
 2.17700000e+03
 2.21500000e+03
 2.26900000e+03
 2.35500000e+03
 2.42800000e+03
 2.50600000e+03
 2.56500000e+03
 2.63400000e+03
 2.65500000e+03
 2.66000000e+03
 2.63500000e+03
 2.58100000e+03
 2.50800000e+03
 2.41900000e+03
 2.34700000e+03
 2.28900000e+03
 2.24100000e+03
 2.17000000e+03
 2.15000000e+03
 2.15800000e+03
 2.17900000e+03
 2.22000000e+03
 2.28200000e+03
 2.37500000e+03
 2.45900000e+03
 2.53800000e+03
 2.58900000e+03
 2.62900000e+03
 2.64900000e+03
 2.64100000e+03
 2.61300000e+03
 2.58700000e+03
 2.51700000e+03
 2.43200000e+03
 2.35700000e+03
 2.28900000e+03
 2.22200000e+03
 2.18700000e+03
 2.15700000e+03
 2.15700000e+03
 2.16900000e+03
 2.21100000e+03
 2.29600000e+03
 2.38900000e+03
 2.45300000e+03
 2.51500000e+03
 2.58700000e+03
 2.65000000e+03
 2.66700000e+03
 2.67300000e+03
 2.65700000e+03
 2.59800000e+03
 2.52100000e+03
 2.44700000e+03
 2.38700000e+03
 2.31700000e+03
 2.26100000e+03
 2.20800000e+03
 2.18100000e+03
 2.18200000e+03
 2.20000000e+03
 2.24100000e+03
 2.30600000e+03
 2.38400000e+03
 2.45000000e+03
 2.53200000e+03
 2.59200000e+03
 2.62900000e+03
 2.66500000e+03
 2.66300000e+03
 2.65400000e+03
 2.60300000e+03
 2.54300000e+03
 2.47900000e+03
 2.39800000e+03
 2.31800000e+03
 2.25700000e+03
 2.20300000e+03
 2.17300000e+03
 2.18000000e+03
 2.19800000e+03
 2.23200000e+03
 2.30900000e+03
 2.39600000e+03
 2.47000000e+03
 2.55800000e+03
 2.61000000e+03
 2.63200000e+03
 2.66000000e+03
 2.65600000e+03
 2.62800000e+03
 2.59100000e+03
 2.52700000e+03
 2.43100000e+03
 2.35200000e+03
 2.27600000e+03
 2.22400000e+03
 2.17500000e+03
 2.14700000e+03
 2.14100000e+03
 2.16600000e+03
 2.21800000e+03
 2.28200000e+03
 2.34000000e+03
 2.39700000e+03
 2.46500000e+03
 2.52500000e+03
 2.57300000e+03
 2.58900000e+03
 2.58700000e+03
 2.58800000e+03
 2.56700000e+03
 2.49500000e+03
 2.40400000e+03
 2.30600000e+03
 2.22900000e+03
 2.16900000e+03
 2.11700000e+03
 2.09900000e+03
 2.08300000e+03
 2.08900000e+03
 2.13700000e+03
 2.20900000e+03
 2.28800000e+03
 2.34300000e+03
 2.42300000e+03
 2.49300000e+03
 2.53900000e+03
 2.55400000e+03
 2.55100000e+03
 2.52600000e+03
 2.49500000e+03
 2.43700000e+03
 2.35000000e+03
 2.26100000e+03
 2.19600000e+03
 2.13600000e+03
 2.07600000e+03
 2.03500000e+03
 2.03200000e+03
 2.06100000e+03
 2.08700000e+03
 2.16500000e+03
 2.26400000e+03
 2.32500000e+03
 2.38300000e+03
 2.44700000e+03
 2.50500000e+03
 2.52800000e+03
 2.52300000e+03
 2.49300000e+03
 2.45800000e+03
 2.39300000e+03
 2.31600000e+03
 2.24900000e+03
 2.17000000e+03
 2.10100000e+03
 2.03500000e+03
 1.99600000e+03
 2.00700000e+03
 2.03700000e+03
 2.08300000e+03
 2.15700000e+03
 2.22300000e+03
 2.28900000e+03
 2.34300000e+03
 2.40300000e+03
 2.46800000e+03
 2.50700000e+03
 2.52200000e+03
 2.49400000e+03
 2.45400000e+03
 2.39400000e+03
 2.31800000e+03
 2.23200000e+03
 2.15100000e+03
 2.08200000e+03
 2.03800000e+03
 2.01400000e+03
 2.01500000e+03
 2.03700000e+03
 2.07300000e+03
 2.15200000e+03
 2.22200000e+03
 2.29400000e+03
 2.37200000e+03
 2.43500000e+03
 2.48800000e+03
 2.52000000e+03
 2.50800000e+03
 2.48700000e+03
 2.44900000e+03
 2.39300000e+03
 2.31200000e+03
 2.24700000e+03
 2.16300000e+03
 2.08800000e+03
 2.03800000e+03
 2.00600000e+03
 2.01200000e+03
 2.02500000e+03
 2.07700000e+03
 2.16000000e+03
 2.23100000e+03
 2.28400000e+03
 2.34400000e+03
 2.41900000e+03
 2.48900000e+03
 2.50500000e+03
 2.49400000e+03
 2.47300000e+03
 2.42800000e+03
 2.36200000e+03
 2.28200000e+03
 2.22000000e+03
 2.16200000e+03
 2.11500000e+03
 2.05700000e+03
 2.03000000e+03
 2.02200000e+03
 2.03500000e+03
 2.06300000e+03
 2.12700000e+03
 2.20700000e+03
 2.30100000e+03
 2.36400000e+03
 2.40300000e+03
 2.45500000e+03
 2.49600000e+03
 2.50200000e+03
 2.47400000e+03
 2.43600000e+03
 2.36600000e+03
 2.29600000e+03
 2.22100000e+03
 2.13800000e+03
 2.08600000e+03
 2.03200000e+03
 1.99500000e+03
 1.99100000e+03
 2.02800000e+03
 2.06300000e+03
 2.11600000e+03
 2.19600000e+03
 2.28000000e+03
 2.35100000e+03
 2.42600000e+03
 2.47200000e+03
 2.50400000e+03
 2.50100000e+03
 2.49100000e+03
 2.45800000e+03
 2.37000000e+03
 2.28600000e+03
 2.20700000e+03
 2.12800000e+03
 2.06300000e+03
 2.00300000e+03
 1.98100000e+03
 1.99800000e+03
 2.01600000e+03
 2.02700000e+03
 2.08900000e+03
 2.17700000e+03
 2.26400000e+03
 2.32700000e+03
 2.39000000e+03
 2.43500000e+03
 2.47400000e+03
 2.48200000e+03
 2.45600000e+03
 2.42200000e+03
 2.33900000e+03
 2.25100000e+03
 2.17100000e+03
 2.11500000e+03
 2.07800000e+03
 2.01800000e+03
 1.98300000e+03
 1.99800000e+03
 2.01300000e+03
 2.02600000e+03
 2.08700000e+03
 2.15300000e+03
 2.22300000e+03
 2.29600000e+03
 2.36100000e+03
 2.42600000e+03
 2.45900000e+03
 2.44800000e+03
 2.41700000e+03
 2.41100000e+03
 2.35900000e+03
 2.28000000e+03
 2.17700000e+03
 2.09400000e+03
 2.04400000e+03
 1.99000000e+03
 1.95500000e+03
 1.95300000e+03
 1.97000000e+03
 1.99100000e+03
 2.05700000e+03
 2.13000000e+03
 2.20500000e+03
 2.28200000e+03
 2.33300000e+03
 2.38700000e+03
 2.43400000e+03
 2.43600000e+03
 2.41500000e+03
 2.38100000e+03
 2.31900000e+03
 2.26400000e+03
 2.17000000e+03
 2.08000000e+03
 2.02300000e+03
 1.97300000e+03
 1.92100000e+03
 1.92300000e+03
 1.95500000e+03
 1.98100000e+03
 2.04700000e+03
 2.11600000e+03
 2.19800000e+03
 2.27700000e+03
 2.33700000e+03
 2.38800000e+03
 2.41600000e+03
 2.42100000e+03
 2.39800000e+03
 2.38000000e+03
 2.30300000e+03
 2.22400000e+03
 2.14000000e+03
 2.06200000e+03
 2.00200000e+03
 1.93800000e+03
 1.89300000e+03
 1.90100000e+03
 1.93800000e+03
 1.96600000e+03
 2.03100000e+03
 2.09400000e+03
 2.19000000e+03
 2.26900000e+03
 2.31100000e+03
 2.36000000e+03
 2.39300000e+03
 2.39300000e+03
 2.38500000e+03
 2.34500000e+03
 2.27300000e+03
 2.21300000e+03
 2.13400000e+03
 2.05800000e+03
 1.99300000e+03
 1.92400000e+03
 1.88400000e+03
 1.87700000e+03
 1.89900000e+03
 1.93400000e+03
 2.01000000e+03
 2.09100000e+03
 2.16600000e+03
 2.24400000e+03
 2.30000000e+03
 2.35100000e+03
 2.37500000e+03
 2.38300000e+03
 2.36900000e+03
 2.35700000e+03
 2.29400000e+03
 2.22500000e+03
 2.13000000e+03
 2.04600000e+03
 1.98500000e+03
 1.92100000e+03
 1.88600000e+03
 1.88200000e+03
 1.90000000e+03
 1.92500000e+03
 2.00400000e+03
 2.08200000e+03
 2.15100000e+03
 2.22200000e+03
 2.27200000e+03
 2.33000000e+03
 2.35800000e+03
 2.35700000e+03
 2.34000000e+03
 2.31500000e+03
 2.24600000e+03
 2.18100000e+03
 2.09700000e+03
 2.02400000e+03
 1.96700000e+03
 1.90400000e+03
 1.87200000e+03
 1.87300000e+03
 1.87900000e+03
 1.90200000e+03
 1.97400000e+03
 2.05700000e+03
 2.14800000e+03
 2.22700000e+03
 2.29200000e+03
 2.34800000e+03
 2.38800000e+03
 2.39700000e+03
 2.36700000e+03
 2.34900000e+03
 2.27800000e+03
 2.22100000e+03
 2.13300000e+03
 2.04800000e+03
 1.97700000e+03
 1.92900000e+03
 1.90300000e+03
 1.90000000e+03
 1.91400000e+03
 1.94400000e+03
 2.00700000e+03
 2.08100000e+03
 2.16700000e+03
 2.25100000e+03
 2.31500000e+03
 2.35900000e+03
 2.38900000e+03
 2.39300000e+03
 2.37800000e+03
 2.35800000e+03
 2.28100000e+03
 2.22200000e+03
 2.14600000e+03
 2.07200000e+03
 2.00600000e+03
 1.94300000e+03
 1.90800000e+03
 1.90100000e+03
 1.93200000e+03
 1.96700000e+03
 2.04200000e+03
 2.10600000e+03
 2.19100000e+03
 2.25800000e+03
 2.30600000e+03
 2.37400000e+03
 2.40400000e+03
 2.39500000e+03
 2.36500000e+03
 2.35000000e+03
 2.29900000e+03
 2.23600000e+03
 2.14800000e+03
 2.04800000e+03
 1.97700000e+03
 1.91100000e+03
 1.86000000e+03
 1.84700000e+03
 1.87600000e+03
 1.91400000e+03
 1.98000000e+03
 2.05900000e+03
 2.14700000e+03
 2.20800000e+03
 2.25900000e+03
 2.31300000e+03
 2.35700000e+03
 2.37600000e+03
 2.36200000e+03
 2.33700000e+03
 2.26500000e+03
 2.19100000e+03
 2.11300000e+03
 2.05200000e+03
 1.97800000e+03
 1.90500000e+03
 1.85800000e+03
 1.84300000e+03
 1.87000000e+03
 1.90100000e+03
 1.97800000e+03
 2.03300000e+03
 2.10300000e+03
 2.18100000e+03
 2.25200000e+03
 2.30900000e+03
 2.34000000e+03
 2.35000000e+03
 2.34000000e+03
 2.31200000e+03
 2.24400000e+03
 2.16500000e+03
 2.07400000e+03
 2.00900000e+03
 1.95300000e+03
 1.89600000e+03
 1.86800000e+03
 1.86400000e+03
 1.87800000e+03
 1.90100000e+03
 1.95200000e+03
 2.00900000e+03
 2.10100000e+03
 2.19900000e+03
 2.27800000e+03
 2.32000000e+03
 2.35100000e+03
 2.35300000e+03
 2.36200000e+03
 2.34400000e+03
 2.26800000e+03
 2.19000000e+03
 2.10400000e+03
 2.02900000e+03
 1.96600000e+03
 1.91700000e+03
 1.88900000e+03
 1.88900000e+03
 1.91200000e+03
 1.95300000e+03
 2.01700000e+03
 2.07500000e+03
 2.17700000e+03
 2.25200000e+03
 2.31600000e+03
 2.38500000e+03
 2.44700000e+03
 2.46900000e+03
 2.45900000e+03
 2.43900000e+03
 2.40400000e+03
 2.36700000e+03
 2.32800000e+03
 2.31000000e+03
 2.30100000e+03
 2.28900000e+03
 2.29600000e+03
 2.32800000e+03
 2.39300000e+03
 2.46900000e+03
 2.60400000e+03
 2.72800000e+03
 2.89200000e+03
 2.98100000e+03
 3.04800000e+03
 3.11000000e+03
 3.15000000e+03
 3.14700000e+03
 3.09100000e+03
 3.02300000e+03
 2.92900000e+03
 2.84700000e+03
 2.73700000e+03
 2.65100000e+03
 2.55900000e+03
 2.46000000e+03
 2.36800000e+03
 2.28800000e+03
 2.25400000e+03
 2.22800000e+03
 2.24400000e+03
 2.26700000e+03
 2.32400000e+03
 2.38400000e+03
 2.42800000e+03
 2.47600000e+03
 2.51800000e+03
 2.52500000e+03
 2.50900000e+03
 2.48400000e+03
 2.43400000e+03
 2.37900000e+03
 2.28500000e+03
 2.19700000e+03
 2.12300000e+03
 2.06300000e+03
 2.01700000e+03
 1.99400000e+03
 2.00700000e+03
 2.03600000e+03
 2.09000000e+03
 2.14900000e+03
 2.24600000e+03
 2.32200000e+03
 2.38500000e+03
 2.44500000e+03
 2.48300000e+03
 2.49700000e+03
 2.47400000e+03
 2.45000000e+03
 2.38700000e+03
 2.31400000e+03
 2.22500000e+03
 2.14800000e+03
 2.08100000e+03
 2.02000000e+03
 1.97700000e+03
 1.96200000e+03
 1.98200000e+03
 2.02900000e+03
 2.09600000e+03
 2.15000000e+03
 2.23200000e+03
 2.31400000e+03
 2.38500000e+03
 2.44800000e+03
 2.48700000e+03
 2.49100000e+03
 2.47500000e+03
 2.45400000e+03
 2.38800000e+03
 2.33100000e+03
 2.23000000e+03
 2.16700000e+03
 2.11600000e+03
 2.05100000e+03
 1.99800000e+03
 1.99000000e+03
 2.00900000e+03
 2.04600000e+03
 2.11100000e+03
 2.19300000e+03
 2.27300000e+03
 2.32900000e+03
 2.40900000e+03
 2.47600000e+03
 2.50800000e+03
 2.51100000e+03
 2.48900000e+03
 2.46100000e+03
 2.40700000e+03
 2.34400000e+03
 2.25600000e+03
 2.18900000e+03
 2.11000000e+03
 2.07300000e+03
 2.02400000e+03
 2.00600000e+03
 2.02800000e+03
 2.06600000e+03
 2.11900000e+03
 2.18300000e+03
 2.27700000e+03
 2.33800000e+03
 2.40400000e+03
 2.46200000e+03
 2.49500000e+03
 2.51600000e+03
 2.49900000e+03
 2.46900000e+03
 2.40000000e+03
 2.34000000e+03
 2.27300000e+03
 2.20300000e+03
 2.13000000e+03
 2.08600000e+03
 2.02500000e+03
 1.99100000e+03
 2.02600000e+03
 2.04800000e+03
 2.10300000e+03
 2.17100000e+03
 2.26100000e+03
 2.33500000e+03
 2.38800000e+03
 2.45600000e+03
 2.50600000e+03
 2.51700000e+03
 2.49600000e+03
 2.48000000e+03
 2.42800000e+03
 2.36100000e+03
 2.26700000e+03
 2.18600000e+03
 2.11900000e+03
 2.05400000e+03
 2.01800000e+03
 2.00400000e+03
 2.01600000e+03
 2.04500000e+03
 2.11500000e+03
 2.17900000e+03
 2.25800000e+03
 2.33600000e+03
 2.41400000e+03
 2.46800000e+03
 2.50800000e+03
 2.52200000e+03
 2.51700000e+03
 2.49400000e+03
 2.42700000e+03
 2.35800000e+03
 2.28200000e+03
 2.21500000e+03
 2.15700000e+03
 2.08700000e+03
 2.04300000e+03
 2.01300000e+03
 2.02600000e+03
 2.05300000e+03
 2.10600000e+03
 2.16600000e+03
 2.26000000e+03
 2.33800000e+03
 2.39500000e+03
 2.44300000e+03
 2.48500000e+03
 2.50800000e+03
 2.50500000e+03
 2.47600000e+03
 2.42400000e+03
 2.36000000e+03
 2.27900000e+03
 2.20600000e+03
 2.14200000e+03
 2.07900000e+03
 2.03300000e+03
 2.02300000e+03
 2.04100000e+03
 2.06600000e+03
 2.12500000e+03
 2.19100000e+03
 2.26900000e+03
 2.34400000e+03
 2.42300000e+03
 2.47800000e+03
 2.52200000e+03
 2.52500000e+03
 2.52200000e+03
 2.50100000e+03
 2.43600000e+03
 2.38400000e+03
 2.30400000e+03
 2.24100000e+03
 2.16800000e+03
 2.10300000e+03
 2.06700000e+03
 2.05500000e+03
 2.06200000e+03
 2.08800000e+03
 2.14800000e+03
 2.22100000e+03
 2.32600000e+03
 2.40500000e+03
 2.43700000e+03
 2.48200000e+03
 2.52500000e+03
 2.55000000e+03
 2.54600000e+03
 2.53000000e+03
 2.48000000e+03
 2.41500000e+03
 2.33200000e+03
 2.26600000e+03
 2.18900000e+03
 2.12000000e+03
 2.08700000e+03
 2.07800000e+03
 2.08000000e+03
 2.11100000e+03
 2.15200000e+03
 2.21600000e+03
 2.32100000e+03
 2.38400000e+03
 2.45400000e+03
 2.52100000e+03
 2.55600000e+03
 2.56900000e+03
 2.56400000e+03
 2.54800000e+03
 2.48700000e+03
 2.42100000e+03
 2.33300000e+03
 2.26200000e+03
 2.20500000e+03
 2.14200000e+03
 2.08600000e+03
 2.08000000e+03
 2.08200000e+03
 2.11800000e+03
 2.19000000e+03
 2.25300000e+03
 2.32400000e+03
 2.39600000e+03
 2.45300000e+03
 2.49400000e+03
 2.54600000e+03
 2.57000000e+03
 2.55300000e+03
 2.52400000e+03
 2.48500000e+03
 2.43100000e+03
 2.35000000e+03
 2.27600000e+03
 2.18900000e+03
 2.11800000e+03
 2.06400000e+03
 2.04800000e+03
 2.05300000e+03
 2.06000000e+03
 2.11500000e+03
 2.18700000e+03
 2.27700000e+03
 2.34400000e+03
 2.41700000e+03
 2.47800000e+03
 2.53100000e+03
 2.54900000e+03
 2.52900000e+03
 2.51100000e+03
 2.45500000e+03
 2.38000000e+03
 2.29800000e+03
 2.21900000e+03
 2.12800000e+03
 2.07200000e+03
 2.03200000e+03
 1.99900000e+03
 2.01000000e+03
 2.03100000e+03
 2.07300000e+03
 2.14000000e+03
 2.22600000e+03
 2.29500000e+03
 2.36500000e+03
 2.41800000e+03
 2.45400000e+03
 2.47600000e+03
 2.47300000e+03
 2.44900000e+03
 2.39900000e+03
 2.34700000e+03
 2.27100000e+03
 2.19200000e+03
 2.11500000e+03
 2.05200000e+03
 1.99000000e+03
 1.96200000e+03
 1.97800000e+03
 2.00200000e+03
 2.05200000e+03
 2.10500000e+03
 2.19000000e+03
 2.25900000e+03
 2.35500000e+03
 2.41100000e+03
 2.44000000e+03
 2.46300000e+03
 2.46000000e+03
 2.43000000e+03
 2.38100000e+03
 2.32400000e+03
 2.23600000e+03
 2.15700000e+03
 2.09300000e+03
 2.01900000e+03
 1.96600000e+03
 1.94500000e+03
 1.95400000e+03
 1.97700000e+03
 2.04400000e+03
 2.11300000e+03
 2.18600000e+03
 2.25500000e+03
 2.33500000e+03
 2.39900000e+03
 2.44100000e+03
 2.45800000e+03
 2.45700000e+03
 2.42100000e+03
 2.38100000e+03
 2.33200000e+03
 2.23900000e+03
 2.16300000e+03
 2.09000000e+03
 2.03100000e+03
 1.97700000e+03
 1.94900000e+03
 1.95700000e+03
 1.98300000e+03
 2.03600000e+03
 2.10200000e+03
 2.17100000e+03
 2.23900000e+03
 2.32300000e+03
 2.39700000e+03
 2.44000000e+03
 2.46100000e+03
 2.45000000e+03
 2.43200000e+03
 2.38400000e+03
 2.31500000e+03
 2.23400000e+03
 2.16000000e+03
 2.08500000e+03
 2.01300000e+03
 1.97300000e+03
 1.95300000e+03
 1.96200000e+03
 1.97700000e+03
 2.03400000e+03
 2.10400000e+03
 2.19000000e+03
 2.25800000e+03
 2.31900000e+03
 2.38900000e+03
 2.44500000e+03
 2.45700000e+03
 2.44400000e+03
 2.42400000e+03
 2.38800000e+03
 2.32300000e+03
 2.24400000e+03
 2.17100000e+03
 2.09100000e+03
 2.03600000e+03
 1.98700000e+03
 1.95100000e+03
 1.95900000e+03
 1.98000000e+03
 2.02500000e+03
 2.10900000e+03
 2.19800000e+03
 2.25600000e+03
 2.32800000e+03
 2.38000000e+03
 2.43200000e+03
 2.47200000e+03
 2.47200000e+03
 2.45400000e+03
 2.41300000e+03
 2.34100000e+03
 2.25300000e+03
 2.18100000e+03
 2.10800000e+03
 2.03700000e+03
 1.98100000e+03
 1.94600000e+03
 1.95700000e+03
 1.97700000e+03
 2.01200000e+03
 2.07600000e+03
 2.16200000e+03
 2.24500000e+03
 2.33000000e+03
 2.40900000e+03
 2.45200000e+03
 2.47800000e+03
 2.47100000e+03
 2.42900000e+03
 2.38200000e+03
 2.32300000e+03
 2.24400000e+03
 2.17000000e+03
 2.09000000e+03
 2.02000000e+03
 1.98400000e+03
 1.95200000e+03
 1.96600000e+03
 1.99900000e+03
 2.04100000e+03
 2.10500000e+03
 2.18500000e+03
 2.26500000e+03
 2.34500000e+03
 2.39700000e+03
 2.44700000e+03
 2.48000000e+03
 2.46900000e+03
 2.43600000e+03
 2.39600000e+03
 2.33000000e+03
 2.25300000e+03
 2.17400000e+03
 2.08800000e+03
 2.02900000e+03
 1.97400000e+03
 1.95000000e+03
 1.95800000e+03
 1.97000000e+03
 2.02500000e+03
 2.11100000e+03
 2.19700000e+03
 2.26000000e+03
 2.32400000e+03
 2.38000000e+03
 2.42200000e+03
 2.44800000e+03
 2.45200000e+03
 2.43400000e+03
 2.39500000e+03
 2.33100000e+03
 2.25400000e+03
 2.18200000e+03
 2.09700000e+03
 2.03100000e+03
 1.97800000e+03
 1.95800000e+03
 1.96000000e+03
 1.98400000e+03
 2.01800000e+03
 2.08700000e+03
 2.16400000e+03
 2.25000000e+03
 2.31400000e+03
 2.36400000e+03
 2.41100000e+03
 2.43700000e+03
 2.43400000e+03
 2.43600000e+03
 2.39500000e+03
 2.32200000e+03
 2.23700000e+03
 2.16700000e+03
 2.09600000e+03
 2.02900000e+03
 1.97500000e+03
 1.94800000e+03
 1.94800000e+03
 1.97700000e+03
 2.01600000e+03
 2.08200000e+03
 2.16300000e+03
 2.23400000e+03
 2.30900000e+03
 2.37600000e+03
 2.43100000e+03
 2.44800000e+03
 2.43700000e+03
 2.41000000e+03
 2.39000000e+03
 2.33700000e+03
 2.24700000e+03
 2.13800000e+03
 2.07100000e+03
 2.02300000e+03
 1.97800000e+03
 1.94500000e+03
 1.92600000e+03
 1.94100000e+03
 1.98400000e+03
 2.06100000e+03
 2.15500000e+03
 2.22800000e+03
 2.30800000e+03
 2.35900000e+03
 2.39900000e+03
 2.43600000e+03
 2.43700000e+03
 2.41200000e+03
 2.37100000e+03
 2.30900000e+03
 2.22700000e+03
 2.15100000e+03
 2.06400000e+03
 2.01100000e+03
 1.97400000e+03
 1.94800000e+03
 1.95500000e+03
 1.96400000e+03
 1.99800000e+03
 2.06600000e+03
 2.13800000e+03
 2.20700000e+03
 2.28200000e+03
 2.33200000e+03
 2.37500000e+03
 2.42700000e+03
 2.43200000e+03
 2.40500000e+03
 2.37300000e+03
 2.30600000e+03
 2.22500000e+03
 2.14200000e+03
 2.06900000e+03
 2.00800000e+03
 1.95900000e+03
 1.93000000e+03
 1.92700000e+03
 1.95900000e+03
 1.99000000e+03
 2.06500000e+03
 2.14600000e+03
 2.22300000e+03
 2.29300000e+03
 2.35800000e+03
 2.40200000e+03
 2.43800000e+03
 2.42600000e+03
 2.39000000e+03
 2.36300000e+03
 2.29600000e+03
 2.22600000e+03
 2.14600000e+03
 2.06800000e+03
 2.01500000e+03
 1.96500000e+03
 1.92400000e+03
 1.91800000e+03
 1.92900000e+03
 1.96500000e+03
 2.04100000e+03
 2.12900000e+03
 2.20500000e+03
 2.28200000e+03
 2.33400000e+03
 2.39100000e+03
 2.42900000e+03
 2.43600000e+03
 2.41800000e+03
 2.38900000e+03
 2.31600000e+03
 2.23600000e+03
 2.14800000e+03
 2.07300000e+03
 2.02000000e+03
 1.99100000e+03
 1.96000000e+03
 1.96200000e+03
 1.98600000e+03
 1.99300000e+03
 2.06200000e+03
 2.15200000e+03
 2.26200000e+03
 2.32400000e+03
 2.36700000e+03
 2.41100000e+03
 2.43100000e+03
 2.43900000e+03
 2.42500000e+03
 2.41200000e+03
 2.35100000e+03
 2.26500000e+03
 2.17000000e+03
 2.09200000e+03
 2.05000000e+03
 2.00100000e+03
 1.97800000e+03
 1.97400000e+03
 1.99300000e+03
 2.02300000e+03
 2.10500000e+03
 2.17000000e+03
 2.25300000e+03
 2.33900000e+03
 2.40200000e+03
 2.43700000e+03
 2.46800000e+03
 2.47500000e+03
 2.45600000e+03
 2.42500000e+03
 2.34000000e+03
 2.27700000e+03
 2.21700000e+03
 2.12600000e+03
 2.06400000e+03
 2.01100000e+03
 1.96900000e+03
 1.95900000e+03
 1.98400000e+03
 2.01500000e+03
 2.08700000e+03
 2.16000000e+03
 2.24100000e+03
 2.30700000e+03
 2.36100000e+03
 2.41000000e+03
 2.42600000e+03
 2.41400000e+03
 2.39400000e+03
 2.37700000e+03
 2.32000000e+03
 2.24400000e+03
 2.17200000e+03
 2.08500000e+03
 2.03100000e+03
 1.97400000e+03
 1.93800000e+03
 1.92800000e+03
 1.94800000e+03
 1.97800000e+03
 2.05300000e+03
 2.13700000e+03
 2.20900000e+03
 2.27100000e+03
 2.32200000e+03
 2.39100000e+03
 2.42600000e+03
 2.42400000e+03
 2.41300000e+03
 2.37300000e+03
 2.29100000e+03
 2.21300000e+03
 2.13500000e+03
 2.04900000e+03
 1.98500000e+03
 1.93900000e+03
 1.91200000e+03
 1.91600000e+03
 1.92900000e+03
 1.96600000e+03
 2.03300000e+03
 2.10300000e+03
 2.17600000e+03
 2.25900000e+03
 2.33300000e+03
 2.38900000e+03
 2.41500000e+03
 2.39900000e+03
 2.37700000e+03
 2.34500000e+03
 2.28300000e+03
 2.21700000e+03
 2.14000000e+03
 2.07900000e+03
 2.02800000e+03
 1.96900000e+03
 1.91700000e+03
 1.90300000e+03
 1.91700000e+03
 1.94600000e+03
 2.01900000e+03
 2.10900000e+03
 2.19300000e+03
 2.25900000e+03
 2.31000000e+03
 2.38400000e+03
 2.44000000e+03
 2.45300000e+03
 2.43200000e+03
 2.39600000e+03
 2.33800000e+03
 2.27400000e+03
 2.19200000e+03
 2.11200000e+03
 2.07000000e+03
 2.00500000e+03
 1.96200000e+03
 1.99500000e+03
 2.06900000e+03
 2.12700000e+03
 2.23900000e+03
 2.36200000e+03
 2.49200000e+03
 2.61300000e+03
 2.70900000e+03
 2.79600000e+03
 2.87600000e+03
 2.92000000e+03
 2.96000000e+03
 2.99600000e+03
 3.00300000e+03
 2.93100000e+03
 2.84400000e+03
 2.79200000e+03
 2.72500000e+03
 2.63900000e+03
 2.56400000e+03
 2.53400000e+03
 2.53000000e+03
 2.54000000e+03
 2.58100000e+03
 2.64300000e+03
 2.69000000e+03
 2.72500000e+03
 2.72600000e+03
 2.71400000e+03
 2.69100000e+03
 2.64600000e+03
 2.58200000e+03
 2.51400000e+03
 2.41900000e+03
 2.33200000e+03
 2.23200000e+03
 2.13000000e+03
 2.07700000e+03
 2.03100000e+03
 1.99900000e+03
 1.98800000e+03
 2.01500000e+03
 2.03500000e+03
 2.11200000e+03
 2.17300000e+03
 2.24100000e+03
 2.30200000e+03
 2.34300000e+03
 2.41000000e+03
 2.47200000e+03
 2.47700000e+03
 2.43800000e+03
 2.39300000e+03
 2.31900000e+03
 2.23200000e+03
 2.14800000e+03
 2.06500000e+03
 1.98800000e+03
 1.94800000e+03
 1.91600000e+03
 1.91800000e+03
 1.92200000e+03
 1.94600000e+03
 1.99900000e+03
 2.07400000e+03
 2.17200000e+03
 2.26400000e+03
 2.31100000e+03
 2.35500000e+03
 2.39000000e+03
 2.38800000e+03
 2.36000000e+03
 2.32500000e+03
 2.25600000e+03
 2.19600000e+03
 2.11300000e+03
 2.03800000e+03
 1.97800000e+03
 1.92200000e+03
 1.90100000e+03
 1.89700000e+03
 1.90000000e+03
 1.93500000e+03
 2.00200000e+03
 2.07600000e+03
 2.15100000e+03
 2.22700000e+03
 2.30100000e+03
 2.36500000e+03
 2.40900000e+03
 2.41300000e+03
 2.38500000e+03
 2.34900000e+03
 2.28800000e+03
 2.22000000e+03
 2.12800000e+03
 2.05500000e+03
 2.00000000e+03
 1.93900000e+03
 1.89500000e+03
 1.90300000e+03
 1.93400000e+03
 1.95100000e+03
 2.02000000e+03
 2.09100000e+03
 2.17800000e+03
 2.24300000e+03
 2.29100000e+03
 2.33600000e+03
 2.39200000e+03
 2.39600000e+03
 2.37600000e+03
 2.35000000e+03
 2.29100000e+03
 2.21400000e+03
 2.11400000e+03
 2.04800000e+03
 1.99300000e+03
 1.93900000e+03
 1.90100000e+03
 1.90100000e+03
 1.91500000e+03
 1.94100000e+03
 2.01200000e+03
 2.07200000e+03
 2.15400000e+03
 2.22700000e+03
 2.29200000e+03
 2.35800000e+03
 2.39900000e+03
 2.40400000e+03
 2.39100000e+03
 2.36900000e+03
 2.30000000e+03
 2.21700000e+03
 2.11800000e+03
 2.04600000e+03
 1.99000000e+03
 1.93500000e+03
 1.90000000e+03
 1.90400000e+03
 1.93500000e+03
 1.97200000e+03
 2.03100000e+03
 2.08900000e+03
 2.16200000e+03
 2.25200000e+03
 2.31800000e+03
 2.37500000e+03
 2.41300000e+03
 2.41700000e+03
 2.38500000e+03
 2.35200000e+03
 2.29300000e+03
 2.23600000e+03
 2.14200000e+03
 2.06900000e+03
 2.00400000e+03
 1.94200000e+03
 1.90200000e+03
 1.90700000e+03
 1.92700000e+03
 1.95700000e+03
 2.02400000e+03
 2.10200000e+03
 2.18200000e+03
 2.26100000e+03
 2.31700000e+03
 2.37900000e+03
 2.42000000e+03
 2.44100000e+03
 2.41700000e+03
 2.39300000e+03
 2.31400000e+03
 2.24200000e+03
 2.15800000e+03
 2.09200000e+03
 2.03900000e+03
 1.98000000e+03
 1.95300000e+03
 1.94500000e+03
 1.96600000e+03
 1.97600000e+03
 2.03800000e+03
 2.11100000e+03
 2.20300000e+03
 2.28100000e+03
 2.35500000e+03
 2.42100000e+03
 2.47200000e+03
 2.48700000e+03
 2.46500000e+03
 2.40700000e+03
 2.34900000e+03
 2.28400000e+03
 2.18500000e+03
 2.11200000e+03
 2.05400000e+03
 1.99900000e+03
 1.95600000e+03
 1.96100000e+03
 1.97200000e+03
 1.99800000e+03
 2.06100000e+03
 2.13400000e+03
 2.23800000e+03
 2.31400000e+03
 2.38400000e+03
 2.43300000e+03
 2.48300000e+03
 2.49100000e+03
 2.46700000e+03
 2.43800000e+03
 2.37700000e+03
 2.31300000e+03
 2.23100000e+03
 2.15800000e+03
 2.09400000e+03
 2.04900000e+03
 2.01700000e+03
 1.99500000e+03
 2.00600000e+03
 2.02600000e+03
 2.09600000e+03
 2.16000000e+03
 2.25100000e+03
 2.35100000e+03
 2.42300000e+03
 2.48000000e+03
 2.51000000e+03
 2.51500000e+03
 2.49800000e+03
 2.48400000e+03
 2.44200000e+03
 2.36800000e+03
 2.27100000e+03
 2.19500000e+03
 2.14000000e+03
 2.08000000e+03
 2.03400000e+03
 2.00500000e+03
 2.01000000e+03
 2.04300000e+03
 2.11500000e+03
 2.19100000e+03
 2.28400000e+03
 2.36400000e+03
 2.41100000e+03
 2.46000000e+03
 2.50200000e+03
 2.51800000e+03
 2.51300000e+03
 2.47400000e+03
 2.40900000e+03
 2.35300000e+03
 2.26900000e+03
 2.19600000e+03
 2.13000000e+03
 2.06000000e+03
 2.00900000e+03
 1.99500000e+03
 2.01400000e+03
 2.04300000e+03
 2.10700000e+03
 2.17400000e+03
 2.26500000e+03
 2.33000000e+03
 2.39100000e+03
 2.44400000e+03
 2.47100000e+03
 2.48800000e+03
 2.47300000e+03
 2.43800000e+03
 2.36800000e+03
 2.29700000e+03
 2.19500000e+03
 2.12000000e+03
 2.05500000e+03
 2.00500000e+03
 1.96900000e+03
 1.95000000e+03
 1.96000000e+03
 1.98600000e+03
 2.04600000e+03
 2.11300000e+03
 2.19500000e+03
 2.27200000e+03
 2.33000000e+03
 2.39500000e+03
 2.42700000e+03
 2.44200000e+03
 2.42000000e+03
 2.39700000e+03
 2.34200000e+03
 2.26400000e+03
 2.17600000e+03
 2.09900000e+03
 2.02300000e+03
 1.94700000e+03
 1.89900000e+03
 1.89400000e+03
 1.91500000e+03
 1.93700000e+03
 1.99400000e+03
 2.05900000e+03
 2.15200000e+03
 2.23100000e+03
 2.29700000e+03
 2.35400000e+03
 2.38100000e+03
 2.38700000e+03
 2.38200000e+03
 2.35000000e+03
 2.28500000e+03
 2.22600000e+03
 2.13200000e+03
 2.04700000e+03
 1.98400000e+03
 1.93600000e+03
 1.89300000e+03
 1.87500000e+03
 1.87300000e+03
 1.90100000e+03
 1.95900000e+03
 2.01500000e+03
 2.11600000e+03
 2.18300000e+03
 2.23600000e+03
 2.30800000e+03
 2.37000000e+03
 2.37600000e+03
 2.35200000e+03
 2.33600000e+03
 2.30100000e+03
 2.22800000e+03
 2.13500000e+03
 2.07500000e+03
 1.99800000e+03
 1.94600000e+03
 1.89700000e+03
 1.87600000e+03
 1.86700000e+03
 1.89200000e+03
 1.96300000e+03
 2.04400000e+03
 2.13400000e+03
 2.18300000e+03
 2.24600000e+03
 2.31600000e+03
 2.35900000e+03
 2.37300000e+03
 2.37100000e+03
 2.35400000e+03
 2.29600000e+03
 2.20500000e+03
 2.10500000e+03
 2.04600000e+03
 1.97100000e+03
 1.91300000e+03
 1.88000000e+03
 1.86300000e+03
 1.86900000e+03
 1.89500000e+03
 1.94900000e+03
 2.00500000e+03
 2.09800000e+03
 2.17900000e+03
 2.25300000e+03
 2.31800000e+03
 2.35900000e+03
 2.38200000e+03
 2.37000000e+03
 2.35300000e+03
 2.28800000e+03
 2.22000000e+03
 2.12500000e+03
 2.06000000e+03
 1.99800000e+03
 1.92800000e+03
 1.89800000e+03
 1.88200000e+03
 1.89400000e+03
 1.92900000e+03
 2.00100000e+03
 2.06100000e+03
 2.16600000e+03
 2.22300000e+03
 2.27800000e+03
 2.34600000e+03
 2.39000000e+03
 2.41700000e+03
 2.40500000e+03
 2.36500000e+03
 2.29400000e+03
 2.23400000e+03
 2.15700000e+03
 2.09100000e+03
 2.01500000e+03
 1.93100000e+03
 1.89400000e+03
 1.91600000e+03
 1.93000000e+03
 1.94100000e+03
 1.98100000e+03
 2.04000000e+03
 2.12900000e+03
 2.21300000e+03
 2.27500000e+03
 2.34600000e+03
 2.40500000e+03
 2.42100000e+03
 2.40100000e+03
 2.37600000e+03
 2.31900000e+03
 2.25500000e+03
 2.16000000e+03
 2.07600000e+03
 1.99600000e+03
 1.92000000e+03
 1.89600000e+03
 1.89500000e+03
 1.91000000e+03
 1.93800000e+03
 1.98100000e+03
 2.03800000e+03
 2.13200000e+03
 2.21100000e+03
 2.28800000e+03
 2.33700000e+03
 2.38500000e+03
 2.40500000e+03
 2.39100000e+03
 2.35200000e+03
 2.29600000e+03
 2.24900000e+03
 2.17500000e+03
 2.09500000e+03
 2.02700000e+03
 1.96000000e+03
 1.91600000e+03
 1.89000000e+03
 1.89400000e+03
 1.92300000e+03
 1.97200000e+03
 2.01800000e+03
 2.11800000e+03
 2.20600000e+03
 2.28400000e+03
 2.35200000e+03
 2.38400000e+03
 2.39400000e+03
 2.36900000e+03
 2.35100000e+03
 2.31200000e+03
 2.24300000e+03
 2.14200000e+03
 2.04800000e+03
 1.98000000e+03
 1.92500000e+03
 1.88600000e+03
 1.86300000e+03
 1.87900000e+03
 1.91700000e+03
 1.97300000e+03
 2.04400000e+03
 2.12900000e+03
 2.17700000e+03
 2.23800000e+03
 2.29800000e+03
 2.34500000e+03
 2.38100000e+03
 2.37600000e+03
 2.33800000e+03
 2.27600000e+03
 2.20300000e+03
 2.11000000e+03
 2.05300000e+03
 1.98300000e+03
 1.92300000e+03
 1.87700000e+03
 1.85900000e+03
 1.87100000e+03
 1.89100000e+03
 1.94400000e+03
 2.01600000e+03
 2.09600000e+03
 2.16800000e+03
 2.24100000e+03
 2.29700000e+03
 2.34000000e+03
 2.35800000e+03
 2.34700000e+03
 2.31400000e+03
 2.28500000e+03
 2.20700000e+03
 2.10100000e+03
 2.03100000e+03
 1.97400000e+03
 1.90600000e+03
 1.85800000e+03
 1.85300000e+03
 1.86700000e+03
 1.88600000e+03
 1.93500000e+03
 2.00100000e+03
 2.09200000e+03
 2.16100000e+03
 2.22500000e+03
 2.31000000e+03
 2.35400000e+03
 2.35300000e+03
 2.34800000e+03
 2.33200000e+03
 2.28100000e+03
 2.20800000e+03
 2.12100000e+03
 2.04900000e+03
 1.97700000e+03
 1.89700000e+03
 1.85200000e+03
 1.82400000e+03
 1.83800000e+03
 1.87000000e+03
 1.91500000e+03
 1.97600000e+03
 2.07500000e+03
 2.16300000e+03
 2.23400000e+03
 2.28800000e+03
 2.32900000e+03
 2.37300000e+03
 2.36500000e+03
 2.34700000e+03
 2.28300000e+03
 2.20200000e+03
 2.11500000e+03
 2.06000000e+03
 1.98600000e+03
 1.91400000e+03
 1.86700000e+03
 1.84300000e+03
 1.86000000e+03
 1.88200000e+03
 1.90900000e+03
 2.01100000e+03
 2.11800000e+03
 2.19700000e+03
 2.26700000e+03
 2.32200000e+03
 2.36200000e+03
 2.35300000e+03
 2.34200000e+03
 2.32500000e+03
 2.28800000e+03
 2.22200000e+03
 2.13200000e+03
 2.06500000e+03
 1.99500000e+03
 1.93300000e+03
 1.89600000e+03
 1.86700000e+03
 1.84800000e+03
 1.87500000e+03
 1.94800000e+03
 2.01200000e+03
 2.10900000e+03
 2.19200000e+03
 2.25700000e+03
 2.32100000e+03
 2.38100000e+03
 2.40300000e+03
 2.40400000e+03
 2.37700000e+03
 2.33000000e+03
 2.27700000e+03
 2.17800000e+03
 2.10200000e+03
 2.03400000e+03
 1.97900000e+03
 1.93000000e+03
 1.90600000e+03
 1.91700000e+03
 1.93300000e+03
 1.97900000e+03
 2.05100000e+03
 2.15000000e+03
 2.22100000e+03
 2.28100000e+03
 2.34000000e+03
 2.36800000e+03
 2.40800000e+03
 2.39000000e+03
 2.36100000e+03
 2.31600000e+03
 2.24500000e+03
 2.16800000e+03
 2.10600000e+03
 2.01300000e+03
 1.93300000e+03
 1.89000000e+03
 1.87100000e+03
 1.87200000e+03
 1.88800000e+03
 1.94600000e+03
 2.02300000e+03
 2.11300000e+03
 2.17900000e+03
 2.25800000e+03
 2.32100000e+03
 2.35400000e+03
 2.38600000e+03
 2.36700000e+03
 2.33700000e+03
 2.29400000e+03
 2.22800000e+03
 2.14400000e+03
 2.06300000e+03
 1.98700000e+03
 1.92400000e+03
 1.88200000e+03
 1.87000000e+03
 1.87400000e+03
 1.86800000e+03
 1.90900000e+03
 1.99400000e+03
 2.07400000e+03
 2.14800000e+03
 2.21500000e+03
 2.27000000e+03
 2.31000000e+03
 2.35200000e+03
 2.36200000e+03
 2.33200000e+03
 2.28500000e+03
 2.21600000e+03
 2.13700000e+03
 2.06900000e+03
 2.00400000e+03
 1.92700000e+03
 1.87000000e+03
 1.84900000e+03
 1.85500000e+03
 1.87900000e+03
 1.93600000e+03
 1.99000000e+03
 2.07800000e+03
 2.14900000e+03
 2.20100000e+03
 2.26600000e+03
 2.31000000e+03
 2.34200000e+03
 2.33900000e+03
 2.31900000e+03
 2.28200000e+03
 2.21400000e+03
 2.12600000e+03
 2.05600000e+03
 1.97800000e+03
 1.91900000e+03
 1.89000000e+03
 1.86400000e+03
 1.88500000e+03
 1.89700000e+03
 1.93800000e+03
 2.02300000e+03
 2.11000000e+03
 2.18500000e+03
 2.28300000e+03
 2.36400000e+03
 2.42600000e+03
 2.48100000e+03
 2.50300000e+03
 2.52200000e+03
 2.52000000e+03
 2.49000000e+03
 2.45600000e+03
 2.42500000e+03
 2.40500000e+03
 2.39200000e+03
 2.36400000e+03
 2.37400000e+03
 2.44800000e+03
 2.53100000e+03
 2.59400000e+03
 2.64500000e+03
 2.72100000e+03
 2.77700000e+03
 2.82700000e+03
 2.84600000e+03
 2.85700000e+03
 2.86300000e+03
 2.84200000e+03
 2.79300000e+03
 2.72200000e+03
 2.63400000e+03
 2.52500000e+03
 2.42000000e+03
 2.32700000e+03
 2.22700000e+03
 2.12200000e+03
 2.04400000e+03
 2.00700000e+03
 2.00800000e+03
 2.01700000e+03
 2.03700000e+03
 2.10300000e+03
 2.18700000e+03
 2.25800000e+03
 2.31200000e+03
 2.36600000e+03
 2.39600000e+03
 2.40400000e+03
 2.39200000e+03
 2.35600000e+03
 2.27600000e+03
 2.18400000e+03
 2.09900000e+03
 2.02200000e+03
 1.95300000e+03
 1.89400000e+03
 1.85300000e+03
 1.85000000e+03
 1.89000000e+03
 1.92600000e+03
 1.99200000e+03
 2.08200000e+03
 2.16800000e+03
 2.23200000e+03
 2.28300000e+03
 2.32100000e+03
 2.34200000e+03
 2.33400000e+03
 2.31100000e+03
 2.28700000e+03
 2.24300000e+03
 2.15600000e+03
 2.08000000e+03
 1.99100000e+03
 1.93200000e+03
 1.88100000e+03
 1.84300000e+03
 1.82000000e+03
 1.80900000e+03
 1.84900000e+03
 1.94100000e+03
 2.03900000e+03
 2.13000000e+03
 2.20700000e+03
 2.25500000e+03
 2.28900000e+03
 2.30900000e+03
 2.32100000e+03
 2.30700000e+03
 2.28000000e+03
 2.19900000e+03
 2.12000000e+03
 2.03700000e+03
 1.96100000e+03
 1.89900000e+03
 1.84500000e+03
 1.82200000e+03
 1.83800000e+03
 1.86400000e+03
 1.90100000e+03
 1.97600000e+03
 2.06100000e+03
 2.12200000e+03
 2.18900000e+03
 2.25000000e+03
 2.27800000e+03
 2.31900000e+03
 2.31500000e+03
 2.31200000e+03
 2.28900000e+03
 2.21900000e+03
 2.13100000e+03
 2.06100000e+03
 1.98700000e+03
 1.92200000e+03
 1.87100000e+03
 1.83100000e+03
 1.83000000e+03
 1.84900000e+03
 1.89400000e+03
 1.96500000e+03
 2.06200000e+03
 2.13700000e+03
 2.20900000e+03
 2.27000000e+03
 2.30200000e+03
 2.32900000e+03
 2.32800000e+03
 2.31400000e+03
 2.29400000e+03
 2.23900000e+03
 2.15400000e+03
 2.07100000e+03
 1.97900000e+03
 1.91000000e+03
 1.86200000e+03
 1.84000000e+03
 1.84000000e+03
 1.85200000e+03
 1.89400000e+03
 1.96900000e+03
 2.04300000e+03
 2.12400000e+03
 2.19600000e+03
 2.25700000e+03
 2.31800000e+03
 2.35000000e+03
 2.34200000e+03
 2.31800000e+03
 2.29000000e+03
 2.21900000e+03
 2.13800000e+03
 2.05900000e+03
 1.97700000e+03
 1.92900000e+03
 1.87100000e+03
 1.84000000e+03
 1.84800000e+03
 1.87400000e+03
 1.90700000e+03
 1.98400000e+03
 2.07800000e+03
 2.17200000e+03
 2.25300000e+03
 2.30600000e+03
 2.35900000e+03
 2.39400000e+03
 2.37900000e+03
 2.34900000e+03
 2.30900000e+03
 2.25300000e+03
 2.18300000e+03
 2.09900000e+03
 2.01500000e+03
 1.95500000e+03
 1.90500000e+03
 1.87600000e+03
 1.87800000e+03
 1.89800000e+03
 1.94200000e+03
 2.00800000e+03
 2.08300000e+03
 2.16900000e+03
 2.24700000e+03
 2.29600000e+03
 2.34900000e+03
 2.37500000e+03
 2.38200000e+03
 2.36700000e+03
 2.33800000e+03
 2.27100000e+03
 2.21000000e+03
 2.14900000e+03
 2.05900000e+03
 1.99300000e+03
 1.93900000e+03
 1.91600000e+03
 1.92200000e+03
 1.94700000e+03
 1.97100000e+03
 2.03700000e+03
 2.12300000e+03
 2.20500000e+03
 2.28700000e+03
 2.33700000e+03
 2.37700000e+03
 2.43000000e+03
 2.44400000e+03
 2.41800000e+03
 2.40000000e+03
 2.33900000e+03
 2.24800000e+03
 2.16000000e+03
 2.07500000e+03
 2.02400000e+03
 1.96400000e+03
 1.93200000e+03
 1.93100000e+03
 1.95400000e+03
 1.99800000e+03
 2.07000000e+03
 2.15600000e+03
 2.24700000e+03
 2.31100000e+03
 2.36900000e+03
 2.41400000e+03
 2.44400000e+03
 2.44800000e+03
 2.43700000e+03
 2.41200000e+03
 2.33600000e+03
 2.26600000e+03
 2.18500000e+03
 2.10200000e+03
 2.04200000e+03
 2.00300000e+03
 1.98200000e+03
 1.97000000e+03
 1.98400000e+03
 2.02000000e+03
 2.09800000e+03
 2.17700000e+03
 2.25900000e+03
 2.31600000e+03
 2.35600000e+03
 2.40800000e+03
 2.44300000e+03
 2.45500000e+03
 2.43800000e+03
 2.41300000e+03
 2.35800000e+03
 2.26700000e+03
 2.19100000e+03
 2.11800000e+03
 2.06000000e+03
 1.99100000e+03
 1.95200000e+03
 1.95000000e+03
 1.96600000e+03
 1.98800000e+03
 2.05500000e+03
 2.14100000e+03
 2.24400000e+03
 2.31100000e+03
 2.37300000e+03
 2.43000000e+03
 2.45500000e+03
 2.44500000e+03
 2.42800000e+03
 2.39400000e+03
 2.30200000e+03
 2.23200000e+03
 2.15200000e+03
 2.06700000e+03
 1.99500000e+03
 1.94000000e+03
 1.91400000e+03
 1.89900000e+03
 1.91500000e+03
 1.95000000e+03
 2.04400000e+03
 2.11300000e+03
 2.17900000e+03
 2.26000000e+03
 2.32400000e+03
 2.38200000e+03
 2.40100000e+03
 2.39600000e+03
 2.38200000e+03
 2.34600000e+03
 2.27800000e+03
 2.20300000e+03
 2.11100000e+03
 2.02600000e+03
 1.96600000e+03
 1.89600000e+03
 1.86800000e+03
 1.86200000e+03
 1.87700000e+03
 1.90900000e+03
 1.98000000e+03
 2.04400000e+03
 2.12600000e+03
 2.20600000e+03
 2.26500000e+03
 2.30600000e+03
 2.34700000e+03
 2.36700000e+03
 2.33700000e+03
 2.29300000e+03
 2.20900000e+03
 2.14600000e+03
 2.07000000e+03
 2.00900000e+03
 1.95400000e+03
 1.90300000e+03
 1.86700000e+03
 1.86300000e+03
 1.86400000e+03
 1.87800000e+03
 1.93700000e+03
 2.01100000e+03
 2.10100000e+03
 2.19300000e+03
 2.24800000e+03
 2.30200000e+03
 2.32400000e+03
 2.32100000e+03
 2.30200000e+03
 2.26600000e+03
 2.19300000e+03
 2.13400000e+03
 2.05300000e+03
 1.97400000e+03
 1.92600000e+03
 1.86500000e+03
 1.81100000e+03
 1.80300000e+03
 1.83300000e+03
 1.86200000e+03
 1.94200000e+03
 2.02000000e+03
 2.08900000e+03
 2.15200000e+03
 2.20800000e+03
 2.26800000e+03
 2.31900000e+03
 2.32400000e+03
 2.31600000e+03
 2.29300000e+03
 2.22500000e+03
 2.13600000e+03
 2.05800000e+03
 1.95900000e+03
 1.90800000e+03
 1.85100000e+03
 1.81200000e+03
 1.80800000e+03
 1.83300000e+03
 1.86700000e+03
 1.92900000e+03
 1.98400000e+03
 2.06600000e+03
 2.16600000e+03
 2.24700000e+03
 2.30200000e+03
 2.34300000e+03
 2.32500000e+03
 2.28800000e+03
 2.25700000e+03
 2.18800000e+03
 2.11400000e+03
 2.04100000e+03
 1.96900000e+03
 1.90100000e+03
 1.85000000e+03
 1.80800000e+03
 1.80400000e+03
 1.81500000e+03
 1.85700000e+03
 1.91700000e+03
 1.97000000e+03
 2.04000000e+03
 2.11000000e+03
 2.17100000e+03
 2.24800000e+03
 2.30100000e+03
 2.29600000e+03
 2.30400000e+03
 2.27100000e+03
 2.20500000e+03
 2.14300000e+03
 2.06500000e+03
 1.97900000e+03
 1.91300000e+03
 1.85400000e+03
 1.80600000e+03
 1.78100000e+03
 1.79800000e+03
 1.82900000e+03
 1.90000000e+03
 1.96300000e+03
 2.04100000e+03
 2.13100000e+03
 2.17900000e+03
 2.24100000e+03
 2.28200000e+03
 2.29700000e+03
 2.28000000e+03
 2.25200000e+03
 2.17400000e+03
 2.10700000e+03
 2.02600000e+03
 1.95600000e+03
 1.90100000e+03
 1.83900000e+03
 1.80300000e+03
 1.78500000e+03
 1.78500000e+03
 1.80000000e+03
 1.86700000e+03
 1.94300000e+03
 2.03200000e+03
 2.11400000e+03
 2.17800000e+03
 2.23700000e+03
 2.26900000e+03
 2.26600000e+03
 2.25700000e+03
 2.22700000e+03
 2.15500000e+03
 2.06700000e+03
 1.96700000e+03
 1.91000000e+03
 1.85700000e+03
 1.79500000e+03
 1.76500000e+03
 1.75600000e+03
 1.76900000e+03
 1.79900000e+03
 1.87300000e+03
 1.92400000e+03
 2.01400000e+03
 2.07200000e+03
 2.12800000e+03
 2.18600000e+03
 2.23400000e+03
 2.26100000e+03
 2.24400000e+03
 2.21500000e+03
 2.12700000e+03
 2.03800000e+03
 1.95600000e+03
 1.88600000e+03
 1.82600000e+03
 1.77400000e+03
 1.73800000e+03
 1.73200000e+03
 1.73700000e+03
 1.77400000e+03
 1.83400000e+03
 1.89300000e+03
 1.97600000e+03
 2.05100000e+03
 2.10300000e+03
 2.16600000e+03
 2.21600000e+03
 2.21400000e+03
 2.18500000e+03
 2.15000000e+03
 2.08700000e+03
 2.02100000e+03
 1.93500000e+03
 1.85800000e+03
 1.80400000e+03
 1.73300000e+03
 1.69100000e+03
 1.69300000e+03
 1.69800000e+03
 1.71900000e+03
 1.79000000e+03
 1.86100000e+03
 1.95400000e+03
 2.02100000e+03
 2.07500000e+03
 2.12300000e+03
 2.16200000e+03
 2.17500000e+03
 2.17600000e+03
 2.15500000e+03
 2.08300000e+03
 2.00900000e+03
 1.91700000e+03
 1.84100000e+03
 1.77700000e+03
 1.71000000e+03
 1.65900000e+03
 1.64200000e+03
 1.65900000e+03
 1.66700000e+03
 1.72500000e+03
 1.79400000e+03
 1.87900000e+03
 1.96000000e+03
 2.03500000e+03
 2.09000000e+03
 2.13300000e+03
 2.13100000e+03
 2.13500000e+03
 2.09200000e+03
 2.01800000e+03
 1.95400000e+03
 1.87600000e+03
 1.79200000e+03
 1.71800000e+03
 1.65100000e+03
 1.61500000e+03
 1.60600000e+03
 1.60000000e+03
 1.62000000e+03
 1.70000000e+03
 1.76800000e+03
 1.85200000e+03
 1.91000000e+03
 1.96300000e+03
 2.01800000e+03
 2.08400000e+03
 2.09900000e+03
 2.09300000e+03
 2.05100000e+03
 1.98400000e+03
 1.90800000e+03
 1.81600000e+03
 1.74700000e+03
 1.67800000e+03
 1.61100000e+03
 1.57300000e+03
 1.56500000e+03
 1.59900000e+03
 1.63000000e+03
 1.68500000e+03
 1.72300000e+03
 1.79900000e+03
 1.87500000e+03
 1.92600000e+03
 1.99500000e+03
 2.05900000e+03
 2.07400000e+03
 2.05100000e+03
 2.02200000e+03
 1.94900000e+03
 1.88100000e+03
 1.79600000e+03
 1.73100000e+03
 1.65900000e+03
 1.59200000e+03
 1.54300000e+03
 1.52400000e+03
 1.54400000e+03
 1.57600000e+03
 1.63800000e+03
 1.70200000e+03
 1.77600000e+03
 1.84200000e+03
 1.90900000e+03
 1.97300000e+03
 2.01700000e+03
 2.03900000e+03
 2.01700000e+03
 1.98000000e+03
 1.91500000e+03
 1.85000000e+03
 1.76500000e+03
 1.68900000e+03
 1.62200000e+03
 1.56100000e+03
 1.52000000e+03
 1.51600000e+03
 1.53200000e+03
 1.55700000e+03
 1.61900000e+03
 1.68200000e+03
 1.75300000e+03
 1.82500000e+03
 1.88800000e+03
 1.95700000e+03
 1.99600000e+03
 1.99500000e+03
 1.97100000e+03
 1.93800000e+03
 1.85800000e+03
 1.78500000e+03
 1.69500000e+03
 1.61600000e+03
 1.55000000e+03
 1.49600000e+03
 1.46700000e+03
 1.46000000e+03
 1.46400000e+03
 1.49100000e+03
 1.54400000e+03
 1.60900000e+03
 1.69900000e+03
 1.77500000e+03
 1.84300000e+03
 1.90500000e+03
 1.94500000e+03
 1.95800000e+03
 1.93300000e+03
 1.90800000e+03
 1.85300000e+03
 1.79400000e+03
 1.69600000e+03
 1.62000000e+03
 1.55500000e+03
 1.49200000e+03
 1.45300000e+03
 1.44100000e+03
 1.44100000e+03
 1.47000000e+03
 1.53700000e+03
 1.60700000e+03
 1.68500000e+03
 1.76200000e+03
 1.83800000e+03
 1.89900000e+03
 1.94800000e+03
 1.97300000e+03
 1.97000000e+03
 1.93800000e+03
 1.86700000e+03
 1.80300000e+03
 1.71600000e+03
 1.65800000e+03
 1.59900000e+03
 1.53200000e+03
 1.49200000e+03
 1.47800000e+03
 1.48900000e+03
 1.52300000e+03
 1.58700000e+03
 1.65200000e+03
 1.73100000e+03
 1.80900000e+03
 1.89500000e+03
 1.97000000e+03
 2.01600000e+03
 2.02800000e+03
 2.02100000e+03
 2.00000000e+03
 1.94500000e+03
 1.88600000e+03
 1.80000000e+03
 1.73700000e+03
 1.68100000e+03
 1.64100000e+03
 1.61300000e+03
 1.60500000e+03
 1.62700000e+03
 1.64000000e+03
 1.70200000e+03
 1.78900000e+03
 1.90900000e+03
 1.98500000e+03
 2.05700000e+03
 2.14900000e+03
 2.22700000e+03
 2.27700000e+03
 2.30100000e+03
 2.32400000e+03
 2.31500000e+03
 2.30800000e+03
 2.26700000e+03
 2.23300000e+03
 2.20400000e+03
 2.19700000e+03
 2.20300000e+03
 2.25300000e+03
 2.32500000e+03
 2.37100000e+03
 2.44200000e+03
 2.50400000e+03
 2.58700000e+03
 2.61600000e+03
 2.65600000e+03
 2.70300000e+03
 2.73200000e+03
 2.70700000e+03
 2.68200000e+03
 2.63400000e+03
 2.53200000e+03
 2.44200000e+03
 2.30800000e+03
 2.18700000e+03
 2.05800000e+03
 1.94300000e+03
 1.85700000e+03
 1.82100000e+03
 1.79200000e+03
 1.77800000e+03
 1.84200000e+03
 1.89700000e+03
 1.98400000e+03
 2.04900000e+03
 2.12200000e+03
 2.20900000e+03
 2.26800000e+03
 2.28000000e+03
 2.25900000e+03
 2.22900000e+03
 2.18100000e+03
 2.11100000e+03
 2.01000000e+03
 1.95100000e+03
 1.89200000e+03
 1.83000000e+03
 1.76500000e+03
 1.72400000e+03
 1.72600000e+03
 1.74200000e+03
 1.80800000e+03
 1.87600000e+03
 1.96900000e+03
 2.05200000e+03
 2.12400000e+03
 2.17800000e+03
 2.22800000e+03
 2.24800000e+03
 2.23400000e+03
 2.21300000e+03
 2.15700000e+03
 2.07700000e+03
 1.98700000e+03
 1.92300000e+03
 1.84800000e+03
 1.78900000e+03
 1.75500000e+03
 1.74000000e+03
 1.75600000e+03
 1.77400000e+03
 1.82300000e+03
 1.87400000e+03
 1.96900000e+03
 2.06600000e+03
 2.12900000e+03
 2.18500000e+03
 2.24900000e+03
 2.27400000e+03
 2.26200000e+03
 2.23100000e+03
 2.16900000e+03
 2.09600000e+03
 1.99800000e+03
 1.92500000e+03
 1.86800000e+03
 1.80400000e+03
 1.77000000e+03
 1.75800000e+03
 1.77000000e+03
 1.79100000e+03
 1.83300000e+03
 1.89200000e+03
 1.96400000e+03
 2.04000000e+03
 2.11800000e+03
 2.18900000e+03
 2.25300000e+03
 2.27900000e+03
 2.27100000e+03
 2.24300000e+03
 2.18600000e+03
 2.11200000e+03
 2.01700000e+03
 1.94200000e+03
 1.87600000e+03
 1.82100000e+03
 1.77700000e+03
 1.74300000e+03
 1.75700000e+03
 1.78900000e+03
 1.84900000e+03
 1.90900000e+03
 2.00000000e+03
 2.08000000e+03
 2.14700000e+03
 2.22200000e+03
 2.26500000e+03
 2.29400000e+03
 2.29200000e+03
 2.25700000e+03
 2.21400000e+03
 2.14100000e+03
 2.05300000e+03
 1.99200000e+03
 1.91800000e+03
 1.85200000e+03
 1.80800000e+03
 1.80200000e+03
 1.79700000e+03
 1.81100000e+03
 1.86500000e+03
 1.91700000e+03
 2.00600000e+03
 2.10300000e+03
 2.20000000e+03
 2.25200000e+03
 2.30200000e+03
 2.32000000e+03
 2.31400000e+03
 2.28700000e+03
 2.21900000e+03
 2.13500000e+03
 2.05500000e+03
 1.99200000e+03
 1.91600000e+03
 1.86100000e+03
 1.82900000e+03
 1.81700000e+03
 1.82900000e+03
 1.84300000e+03
 1.88400000e+03
 1.95500000e+03
 2.05200000e+03
 2.12000000e+03
 2.19300000e+03
 2.25400000e+03
 2.30600000e+03
 2.33300000e+03
 2.33400000e+03
 2.32400000e+03
 2.28100000e+03
 2.20700000e+03
 2.11100000e+03
 2.03600000e+03
 1.97300000e+03
 1.90900000e+03
 1.86100000e+03
 1.82500000e+03
 1.84900000e+03
 1.88200000e+03
 1.94300000e+03
 2.01300000e+03
 2.09500000e+03
 2.15900000e+03
 2.24100000e+03
 2.30900000e+03
 2.36100000e+03
 2.39800000e+03
 2.37900000e+03
 2.34200000e+03
 2.29600000e+03
 2.25700000e+03
 2.18000000e+03
 2.08300000e+03
 2.00700000e+03
 1.94900000e+03
 1.94100000e+03
 1.91400000e+03
 1.90200000e+03
 1.92800000e+03
 1.98400000e+03
 2.04800000e+03
 2.14000000e+03
 2.21400000e+03
 2.28700000e+03
 2.35500000e+03
 2.41500000e+03
 2.44500000e+03
 2.45100000e+03
 2.41200000e+03
 2.36500000e+03
 2.30700000e+03
 2.21800000e+03
 2.14800000e+03
 2.07600000e+03
 2.00900000e+03
 1.96900000e+03
 1.94100000e+03
 1.94500000e+03
 1.97900000e+03
 2.03000000e+03
 2.11000000e+03
 2.19600000e+03
 2.27000000e+03
 2.34300000e+03
 2.40700000e+03
 2.46200000e+03
 2.48900000e+03
 2.48600000e+03
 2.46300000e+03
 2.43000000e+03
 2.36400000e+03
 2.27300000e+03
 2.19600000e+03
 2.11600000e+03
 2.05600000e+03
 2.01500000e+03
 1.99300000e+03
 2.00700000e+03
 2.04200000e+03
 2.08900000e+03
 2.14600000e+03
 2.24400000e+03
 2.31600000e+03
 2.39100000e+03
 2.46100000e+03
 2.50400000e+03
 2.52100000e+03
 2.51800000e+03
 2.49900000e+03
 2.46300000e+03
 2.39500000e+03
 2.28700000e+03
 2.22300000e+03
 2.16600000e+03
 2.11000000e+03
 2.05700000e+03
 2.03400000e+03
 2.02100000e+03
 2.03500000e+03
 2.09100000e+03
 2.16500000e+03
 2.25100000e+03
 2.32400000e+03
 2.40900000e+03
 2.48800000e+03
 2.52000000e+03
 2.53500000e+03
 2.52000000e+03
 2.50300000e+03
 2.45100000e+03
 2.37500000e+03
 2.28500000e+03
 2.21500000e+03
 2.14800000e+03
 2.08000000e+03
 2.02400000e+03
 1.99600000e+03
 2.01000000e+03
 2.04100000e+03
 2.11100000e+03
 2.15200000e+03
 2.22400000e+03
 2.29300000e+03
 2.37000000e+03
 2.45400000e+03
 2.52000000e+03
 2.51800000e+03
 2.49300000e+03
 2.46200000e+03
 2.42800000e+03
 2.36200000e+03
 2.26300000e+03
 2.19200000e+03
 2.11500000e+03
 2.04500000e+03
 1.99900000e+03
 1.96000000e+03
 1.96500000e+03
 1.99900000e+03
 2.01600000e+03
 2.07800000e+03
 2.17700000e+03
 2.26200000e+03
 2.32100000e+03
 2.38500000e+03
 2.45400000e+03
 2.48400000e+03
 2.47200000e+03
 2.44000000e+03
 2.39400000e+03
 2.33900000e+03
 2.24800000e+03
 2.15700000e+03
 2.07600000e+03
 2.02300000e+03
 1.97900000e+03
 1.95200000e+03
 1.96100000e+03
 1.98600000e+03
 2.02300000e+03
 2.08800000e+03
 2.16800000e+03
 2.23900000e+03
 2.30700000e+03
 2.37200000e+03
 2.42600000e+03
 2.46000000e+03
 2.46000000e+03
 2.43300000e+03
 2.38800000e+03
 2.31100000e+03
 2.22400000e+03
 2.15600000e+03
 2.07700000e+03
 2.01500000e+03
 1.97000000e+03
 1.92900000e+03
 1.93800000e+03
 1.96600000e+03
 2.00200000e+03
 2.07700000e+03
 2.15900000e+03
 2.24700000e+03
 2.32200000e+03
 2.37900000e+03
 2.44300000e+03
 2.47900000e+03
 2.46000000e+03
 2.45300000e+03
 2.42900000e+03
 2.34900000e+03
 2.25000000e+03
 2.16100000e+03
 2.08400000e+03
 2.03300000e+03
 1.98900000e+03
 1.95400000e+03
 1.95100000e+03
 1.96100000e+03
 2.00200000e+03
 2.06900000e+03
 2.17200000e+03
 2.25300000e+03
 2.32500000e+03
 2.38100000e+03
 2.43000000e+03
 2.48500000e+03
 2.48500000e+03
 2.45000000e+03
 2.41200000e+03
 2.34500000e+03
 2.25700000e+03
 2.18200000e+03
 2.09100000e+03
 2.03800000e+03
 1.98800000e+03
 1.94900000e+03
 1.96200000e+03
 1.97800000e+03
 2.00700000e+03
 2.08000000e+03
 2.18700000e+03
 2.27300000e+03
 2.34400000e+03
 2.40800000e+03
 2.43900000e+03
 2.46700000e+03
 2.47800000e+03
 2.46100000e+03
 2.42600000e+03
 2.35600000e+03
 2.28100000e+03
 2.20700000e+03
 2.11900000e+03
 2.04200000e+03
 1.98400000e+03
 1.98100000e+03
 1.98700000e+03
 2.01400000e+03
 2.04200000e+03
 2.10300000e+03
 2.18100000e+03
 2.26200000e+03
 2.34400000e+03
 2.40600000e+03
 2.45200000e+03
 2.49200000e+03
 2.48700000e+03
 2.46900000e+03
 2.42700000e+03
 2.34500000e+03
 2.27500000e+03
 2.21600000e+03
 2.13100000e+03
 2.06200000e+03
 2.01400000e+03
 1.97400000e+03
 1.98100000e+03
 2.00000000e+03
 2.03100000e+03
 2.09300000e+03
 2.18400000e+03
 2.26200000e+03
 2.34300000e+03
 2.39300000e+03
 2.44800000e+03
 2.48900000e+03
 2.48500000e+03
 2.46800000e+03
 2.44000000e+03
 2.38700000e+03
 2.30400000e+03
 2.21100000e+03
 2.13000000e+03
 2.06700000e+03
 2.00900000e+03
 1.97500000e+03
 1.98400000e+03
 2.02700000e+03
 2.05900000e+03
 2.11800000e+03
 2.19500000e+03
 2.28000000e+03
 2.36100000e+03
 2.40900000e+03
 2.44500000e+03
 2.47600000e+03
 2.48500000e+03
 2.47300000e+03
 2.44500000e+03
 2.36900000e+03
 2.27700000e+03
 2.20200000e+03
 2.13500000e+03
 2.07800000e+03
 2.03200000e+03
 2.00900000e+03
 2.01700000e+03
 2.04200000e+03
 2.07500000e+03
 2.13200000e+03
 2.19800000e+03
 2.27800000e+03
 2.36600000e+03
 2.42300000e+03
 2.46800000e+03
 2.49500000e+03
 2.48200000e+03
 2.46000000e+03
 2.43000000e+03
 2.35100000e+03
 2.27400000e+03
 2.19900000e+03
 2.11500000e+03
 2.06000000e+03
 2.00600000e+03
 1.98000000e+03
 1.98300000e+03
 2.00300000e+03
 2.03600000e+03
 2.10800000e+03
 2.19000000e+03
 2.27500000e+03
 2.34700000e+03
 2.42100000e+03
 2.46900000e+03
 2.50100000e+03
 2.49500000e+03
 2.48300000e+03
 2.46400000e+03
 2.38400000e+03
 2.30200000e+03
 2.23700000e+03
 2.17000000e+03
 2.11400000e+03
 2.04000000e+03
 1.98900000e+03
 1.98600000e+03
 2.00000000e+03
 2.04800000e+03
 2.13900000e+03
 2.22600000e+03
 2.31300000e+03
 2.38400000e+03
 2.44300000e+03
 2.48200000e+03
 2.50500000e+03
 2.50100000e+03
 2.48700000e+03
 2.47300000e+03
 2.40700000e+03
 2.32800000e+03
 2.24600000e+03
 2.16100000e+03
 2.10000000e+03
 2.04200000e+03
 2.00200000e+03
 2.02300000e+03
 2.05200000e+03
 2.07800000e+03
 2.14100000e+03
 2.22300000e+03
 2.30200000e+03
 2.38400000e+03
 2.44700000e+03
 2.50200000e+03
 2.53500000e+03
 2.53000000e+03
 2.51900000e+03
 2.48300000e+03
 2.41400000e+03
 2.33800000e+03
 2.27500000e+03
 2.20200000e+03
 2.14500000e+03
 2.10400000e+03
 2.05900000e+03
 2.06100000e+03
 2.08400000e+03
 2.11900000e+03
 2.18600000e+03
 2.26400000e+03
 2.33200000e+03
 2.41300000e+03
 2.49200000e+03
 2.55900000e+03
 2.59700000e+03
 2.57200000e+03
 2.55100000e+03
 2.54300000e+03
 2.46900000e+03
 2.38200000e+03
 2.30500000e+03
 2.22800000e+03
 2.16200000e+03
 2.09600000e+03
 2.07700000e+03
 2.09600000e+03
 2.12300000e+03
 2.16000000e+03
 2.23400000e+03
 2.31700000e+03
 2.36700000e+03
 2.44900000e+03
 2.51600000e+03
 2.57200000e+03
 2.60300000e+03
 2.60400000e+03
 2.57400000e+03
 2.54800000e+03
 2.46900000e+03
 2.38200000e+03
 2.32500000e+03
 2.25300000e+03
 2.20600000e+03
 2.15500000e+03
 2.11700000e+03
 2.11400000e+03
 2.13200000e+03
 2.15500000e+03
 2.22900000e+03
 2.31900000e+03
 2.40400000e+03
 2.46500000e+03
 2.52700000e+03
 2.58200000e+03
 2.62300000e+03
 2.61600000e+03
 2.59500000e+03
 2.55700000e+03
 2.47800000e+03
 2.38600000e+03
 2.31200000e+03
 2.25700000e+03
 2.17400000e+03
 2.10300000e+03
 2.06200000e+03
 2.08400000e+03
 2.10000000e+03
 2.12500000e+03
 2.18300000e+03
 2.27000000e+03
 2.37100000e+03
 2.44500000e+03
 2.50300000e+03
 2.55500000e+03
 2.59600000e+03
 2.58600000e+03
 2.56100000e+03
 2.52900000e+03
 2.47100000e+03
 2.40500000e+03
 2.32000000e+03
 2.23000000e+03
 2.17100000e+03
 2.10900000e+03
 2.06600000e+03
 2.05700000e+03
 2.08000000e+03
 2.12400000e+03
 2.19200000e+03
 2.25900000e+03
 2.34700000e+03
 2.41500000e+03
 2.47300000e+03
 2.51500000e+03
 2.55400000e+03
 2.56200000e+03
 2.53900000e+03
 2.51700000e+03
 2.45100000e+03
 2.38600000e+03
 2.30400000e+03
 2.22700000e+03
 2.16400000e+03
 2.10000000e+03
 2.07300000e+03
 2.06600000e+03
 2.08900000e+03
 2.12400000e+03
 2.19700000e+03
 2.27600000e+03
 2.35700000e+03
 2.43500000e+03
 2.50600000e+03
 2.55500000e+03
 2.58100000e+03
 2.57100000e+03
 2.55100000e+03
 2.51900000e+03
 2.44100000e+03
 2.37200000e+03
 2.29600000e+03
 2.22800000e+03
 2.17200000e+03
 2.12000000e+03
 2.09700000e+03
 2.11400000e+03
 2.13100000e+03
 2.16100000e+03
 2.23800000e+03
 2.30000000e+03
 2.38000000e+03
 2.46200000e+03
 2.53400000e+03
 2.60500000e+03
 2.65400000e+03
 2.67900000e+03
 2.67900000e+03
 2.66600000e+03
 2.62900000e+03
 2.60500000e+03
 2.56700000e+03
 2.53900000e+03
 2.51800000e+03
 2.51000000e+03
 2.51800000e+03
 2.57500000e+03
 2.61900000e+03
 2.69100000e+03
 2.81500000e+03
 2.97200000e+03
 3.07000000e+03
 3.16300000e+03
 3.22200000e+03
 3.26800000e+03
 3.27300000e+03
 3.24300000e+03
 3.20300000e+03
 3.15200000e+03
 3.07200000e+03
 2.98600000e+03
 2.87900000e+03
 2.75600000e+03
 2.65200000e+03
 2.52500000e+03
 2.41800000e+03
 2.37500000e+03
 2.34500000e+03
 2.32700000e+03
 2.35600000e+03
 2.39400000e+03
 2.46300000e+03
 2.51700000e+03
 2.56800000e+03
 2.63500000e+03
 2.66200000e+03
 2.65700000e+03
 2.64600000e+03
 2.62500000e+03
 2.56400000e+03
 2.49000000e+03
 2.40400000e+03
 2.31800000e+03
 2.25700000e+03
 2.18400000e+03
 2.13100000e+03
 2.11400000e+03
 2.12600000e+03
 2.14900000e+03
 2.21300000e+03
 2.28300000e+03
 2.35800000e+03
 2.43100000e+03
 2.48200000e+03
 2.54700000e+03
 2.58400000e+03
 2.58400000e+03
 2.57000000e+03
 2.54300000e+03
 2.47500000e+03
 2.40500000e+03
 2.32500000e+03
 2.23200000e+03
 2.16000000e+03
 2.08600000e+03
 2.06700000e+03
 2.08000000e+03
 2.10500000e+03
 2.12100000e+03
 2.18600000e+03
 2.24500000e+03
 2.31700000e+03
 2.39400000e+03
 2.44500000e+03
 2.50400000e+03
 2.54400000e+03
 2.53700000e+03
 2.52300000e+03
 2.50300000e+03
 2.45000000e+03
 2.39000000e+03
 2.28700000e+03
 2.22200000e+03
 2.16700000e+03
 2.10600000e+03
 2.06400000e+03
 2.04200000e+03
 2.05000000e+03
 2.08800000e+03
 2.15300000e+03
 2.22600000e+03
 2.31500000e+03
 2.37800000e+03
 2.42200000e+03
 2.49400000e+03
 2.53900000e+03
 2.54300000e+03
 2.53300000e+03
 2.52700000e+03
 2.45900000e+03
 2.38600000e+03
 2.30600000e+03
 2.22900000e+03
 2.15000000e+03
 2.09500000e+03
 2.04400000e+03
 2.03200000e+03
 2.05900000e+03
 2.09500000e+03
 2.14700000e+03
 2.23200000e+03
 2.31900000e+03
 2.39000000e+03
 2.46100000e+03
 2.52000000e+03
 2.54600000e+03
 2.54600000e+03
 2.53100000e+03
 2.50200000e+03
 2.43500000e+03
 2.36400000e+03
 2.27900000e+03
 2.20800000e+03
 2.15500000e+03
 2.09600000e+03
 2.03500000e+03
 2.00800000e+03
 2.02800000e+03
 2.05700000e+03
 2.13300000e+03
 2.21100000e+03
 2.29900000e+03
 2.37000000e+03
 2.43000000e+03
 2.48900000e+03
 2.53100000e+03
 2.52700000e+03
 2.51100000e+03
 2.47600000e+03
 2.43100000e+03
 2.37500000e+03
 2.28400000e+03
 2.21000000e+03
 2.15000000e+03
 2.08700000e+03
 2.03300000e+03
 2.00800000e+03
 2.02700000e+03
 2.06900000e+03
 2.13700000e+03
 2.21500000e+03
 2.29300000e+03
 2.35500000e+03
 2.41400000e+03
 2.49300000e+03
 2.55900000e+03
 2.55400000e+03
 2.51400000e+03
 2.48800000e+03
 2.43300000e+03
 2.38000000e+03
 2.31000000e+03
 2.22600000e+03
 2.16200000e+03
 2.10100000e+03
 2.05000000e+03
 2.02400000e+03
 2.05100000e+03
 2.07600000e+03
 2.14100000e+03
 2.21200000e+03
 2.30900000e+03
 2.37300000e+03
 2.44100000e+03
 2.48800000e+03
 2.53600000e+03
 2.54000000e+03
 2.54500000e+03
 2.53200000e+03
 2.45400000e+03
 2.37500000e+03
 2.29500000e+03
 2.23000000e+03
 2.17400000e+03
 2.13200000e+03
 2.09400000e+03
 2.08500000e+03
 2.09100000e+03
 2.11100000e+03
 2.17800000e+03
 2.23700000e+03
 2.31000000e+03
 2.39100000e+03
 2.46700000e+03
 2.53000000e+03
 2.56900000e+03
 2.56700000e+03
 2.54400000e+03
 2.53000000e+03
 2.47500000e+03
 2.41400000e+03
 2.33700000e+03
 2.26000000e+03
 2.21000000e+03
 2.15600000e+03
 2.10100000e+03
 2.09000000e+03
 2.09800000e+03
 2.13700000e+03
 2.21700000e+03
 2.28400000e+03
 2.36100000e+03
 2.43600000e+03
 2.49900000e+03
 2.56800000e+03
 2.59800000e+03
 2.62400000e+03
 2.62600000e+03
 2.58800000e+03
 2.51500000e+03
 2.45000000e+03
 2.36900000e+03
 2.29800000e+03
 2.23700000e+03
 2.16100000e+03
 2.11100000e+03
 2.10400000e+03
 2.13000000e+03
 2.16700000e+03
 2.23400000e+03
 2.30100000e+03
 2.39100000e+03
 2.46600000e+03
 2.50900000e+03
 2.56900000e+03
 2.61000000e+03
 2.64400000e+03
 2.63700000e+03
 2.58900000e+03
 2.51500000e+03
 2.44600000e+03
 2.36700000e+03
 2.29900000e+03
 2.23700000e+03
 2.15200000e+03
 2.10700000e+03
 2.10000000e+03
 2.12700000e+03
 2.16200000e+03
 2.23100000e+03
 2.30900000e+03
 2.38800000e+03
 2.45100000e+03
 2.52300000e+03
 2.57100000e+03
 2.61500000e+03
 2.63500000e+03
 2.60100000e+03
 2.56700000e+03
 2.50500000e+03
 2.44500000e+03
 2.37000000e+03
 2.28300000e+03
 2.21800000e+03
 2.13800000e+03
 2.09500000e+03
 2.08000000e+03
 2.09700000e+03
 2.12900000e+03
 2.19300000e+03
 2.25400000e+03
 2.33600000e+03
 2.39400000e+03
 2.45000000e+03
 2.53200000e+03
 2.58900000e+03
 2.58900000e+03
 2.55400000e+03
 2.51400000e+03
 2.44700000e+03
 2.39500000e+03
 2.31000000e+03
 2.24400000e+03
 2.19400000e+03
 2.12000000e+03
 2.07200000e+03
 2.05600000e+03
 2.06100000e+03
 2.08800000e+03
 2.15200000e+03
 2.21000000e+03
 2.29700000e+03
 2.36500000e+03
 2.42900000e+03
 2.49100000e+03
 2.54100000e+03
 2.55000000e+03
 2.52500000e+03
 2.48000000e+03
 2.42700000e+03
 2.36900000e+03
 2.26900000e+03
 2.18900000e+03
 2.12700000e+03
 2.07700000e+03
 2.03800000e+03
 2.02000000e+03
 2.02900000e+03
 2.05200000e+03
 2.09900000e+03
 2.16800000e+03
 2.27800000e+03
 2.35200000e+03
 2.39400000e+03
 2.44800000e+03
 2.49100000e+03
 2.51100000e+03
 2.50600000e+03
 2.47500000e+03
 2.40300000e+03
 2.33600000e+03
 2.25700000e+03
 2.17800000e+03
 2.10100000e+03
 2.03600000e+03
 2.01000000e+03
 2.01200000e+03
 2.02500000e+03
 2.02800000e+03
 2.09100000e+03
 2.18800000e+03
 2.28100000e+03
 2.34100000e+03
 2.39200000e+03
 2.44500000e+03
 2.49400000e+03
 2.51100000e+03
 2.48700000e+03
 2.46200000e+03
 2.41400000e+03
 2.35100000e+03
 2.26400000e+03
 2.20000000e+03
 2.11700000e+03
 2.04600000e+03
 2.01000000e+03
 2.00800000e+03
 2.02400000e+03
 2.05500000e+03
 2.10000000e+03
 2.14900000e+03
 2.23700000e+03
 2.30300000e+03
 2.37500000e+03
 2.44400000e+03
 2.50300000e+03
 2.51600000e+03
 2.50400000e+03
 2.47800000e+03
 2.42700000e+03
 2.36800000e+03
 2.28100000e+03
 2.20400000e+03
 2.12100000e+03
 2.04700000e+03
 1.99200000e+03
 1.98500000e+03
 2.00800000e+03
 2.03100000e+03
 2.10900000e+03
 2.19100000e+03
 2.27400000e+03
 2.32700000e+03
 2.39600000e+03
 2.45800000e+03
 2.50900000e+03
 2.52600000e+03
 2.49500000e+03
 2.46900000e+03
 2.41600000e+03
 2.37400000e+03
 2.28400000e+03
 2.19800000e+03
 2.12500000e+03
 2.06000000e+03
 2.01200000e+03
 1.99700000e+03
 2.02800000e+03
 2.04700000e+03
 2.09700000e+03
 2.16500000e+03
 2.24500000e+03
 2.31300000e+03
 2.38600000e+03
 2.44900000e+03
 2.49200000e+03
 2.50700000e+03
 2.50500000e+03
 2.47400000e+03
 2.41800000e+03
 2.35600000e+03
 2.27800000e+03
 2.21300000e+03
 2.13600000e+03
 2.06300000e+03
 2.02200000e+03
 2.00000000e+03
 2.00200000e+03
 2.03000000e+03
 2.08200000e+03
 2.16000000e+03
 2.24700000e+03
 2.31000000e+03
 2.36700000e+03
 2.44300000e+03
 2.49200000e+03
 2.49500000e+03
 2.47000000e+03
 2.43600000e+03
 2.38500000e+03
 2.32700000e+03
 2.23200000e+03
 2.15800000e+03
 2.09400000e+03
 2.02200000e+03
 1.97600000e+03
 1.95700000e+03
 1.97700000e+03
 2.00500000e+03
 2.06000000e+03
 2.13100000e+03
 2.22600000e+03
 2.29700000e+03
 2.35600000e+03
 2.39100000e+03
 2.43300000e+03
 2.46100000e+03
 2.46500000e+03
 2.43800000e+03
 2.40800000e+03
 2.32600000e+03
 2.21500000e+03
 2.12400000e+03
 2.05100000e+03
 2.00000000e+03
 1.95300000e+03
 1.91800000e+03
 1.91800000e+03
 1.95300000e+03
 1.99100000e+03
 2.05100000e+03
 2.14800000e+03
 2.23000000e+03
 2.29900000e+03
 2.37000000e+03
 2.40600000e+03
 2.41600000e+03
 2.40500000e+03
 2.37600000e+03
 2.32200000e+03
 2.24800000e+03
 2.16200000e+03
 2.07400000e+03
 2.01400000e+03
 1.95000000e+03
 1.89700000e+03
 1.86500000e+03
 1.86600000e+03
 1.89400000e+03
 1.94800000e+03
 2.00800000e+03
 2.10200000e+03
 2.16700000e+03
 2.21800000e+03
 2.29200000e+03
 2.33200000e+03
 2.35200000e+03
 2.34100000e+03
 2.32500000e+03
 2.27300000e+03
 2.20800000e+03
 2.11500000e+03
 2.04200000e+03
 1.96000000e+03
 1.88000000e+03
 1.82800000e+03
 1.81100000e+03
 1.80900000e+03
 1.83600000e+03
 1.86400000e+03
 1.91600000e+03
 2.00900000e+03
 2.08400000e+03
 2.16500000e+03
 2.21900000e+03
 2.26300000e+03
 2.31100000e+03
 2.29200000e+03
 2.25000000e+03
 2.18900000e+03
 2.12200000e+03
 2.02100000e+03
 1.94500000e+03
 1.87900000e+03
 1.80600000e+03
 1.74200000e+03
 1.72100000e+03
 1.72700000e+03
 1.74600000e+03
 1.79500000e+03
 1.87400000e+03
 1.95900000e+03
 2.02000000e+03
 2.08900000e+03
 2.15900000e+03
 2.21000000e+03
 2.22400000e+03
 2.21700000e+03
 2.18700000e+03
 2.13500000e+03
 2.08300000e+03
 1.98800000e+03
 1.90000000e+03
 1.82200000e+03
 1.76500000e+03
 1.72100000e+03
 1.68300000e+03
 1.70400000e+03
 1.73900000e+03
 1.79200000e+03
 1.82500000e+03
 1.91000000e+03
 1.99000000e+03
 2.07400000e+03
 2.13100000e+03
 2.17700000e+03
 2.19700000e+03
 2.17300000e+03
 2.15800000e+03
 2.10600000e+03
 2.05000000e+03
 1.95700000e+03
 1.87400000e+03
 1.81200000e+03
 1.75400000e+03
 1.70100000e+03
 1.67800000e+03
 1.69100000e+03
 1.70000000e+03
 1.72900000e+03
 1.78700000e+03
 1.89300000e+03
 1.96700000e+03
 2.04600000e+03
 2.11200000e+03
 2.16000000e+03
 2.17900000e+03
 2.19800000e+03
 2.18800000e+03
 2.12800000e+03
 2.04900000e+03
 1.96500000e+03
 1.90000000e+03
 1.83700000e+03
 1.77200000e+03
 1.71600000e+03
 1.68400000e+03
 1.68900000e+03
 1.71200000e+03
 1.74500000e+03
 1.82300000e+03
 1.90500000e+03
 1.97100000e+03
 2.05700000e+03
 2.11700000e+03
 2.14800000e+03
 2.17300000e+03
 2.15800000e+03
 2.13700000e+03
 2.09200000e+03
 2.02600000e+03
 1.93000000e+03
 1.85700000e+03
 1.77200000e+03
 1.70500000e+03
 1.65600000e+03
 1.63800000e+03
 1.65200000e+03
 1.68500000e+03
 1.73800000e+03
 1.79100000e+03
 1.87100000e+03
 1.93200000e+03
 2.02400000e+03
 2.08500000e+03
 2.14000000e+03
 2.15000000e+03
 2.15200000e+03
 2.13300000e+03
 2.07500000e+03
 2.00400000e+03
 1.91900000e+03
 1.85800000e+03
 1.78400000e+03
 1.72400000e+03
 1.67100000e+03
 1.63700000e+03
 1.64900000e+03
 1.66100000e+03
 1.70100000e+03
 1.77000000e+03
 1.88600000e+03
 1.94500000e+03
 2.01800000e+03
 2.07900000e+03
 2.12700000e+03
 2.15700000e+03
 2.15800000e+03
 2.13300000e+03
 2.08500000e+03
 2.00700000e+03
 1.92500000e+03
 1.86400000e+03
 1.79900000e+03
 1.75000000e+03
 1.69600000e+03
 1.67400000e+03
 1.67400000e+03
 1.70600000e+03
 1.74100000e+03
 1.81100000e+03
 1.89400000e+03
 1.96600000e+03
 2.03200000e+03
 2.09000000e+03
 2.15000000e+03
 2.20400000e+03
 2.18900000e+03
 2.15900000e+03
 2.13900000e+03
 2.07600000e+03
 1.98400000e+03
 1.91400000e+03
 1.86200000e+03
 1.80100000e+03
 1.74400000e+03
 1.73000000e+03
 1.74100000e+03
 1.78800000e+03
 1.82400000e+03
 1.89700000e+03
 2.00800000e+03
 2.12200000e+03
 2.22000000e+03
 2.30600000e+03
 2.38800000e+03
 2.48800000e+03
 2.54600000e+03
 2.57500000e+03
 2.57400000e+03
 2.54600000e+03
 2.48100000e+03
 2.46800000e+03
 2.45600000e+03
 2.48000000e+03
 2.44500000e+03
 2.40000000e+03
 2.40800000e+03
 2.43200000e+03
 2.44200000e+03
 2.47000000e+03
 2.52800000e+03
 2.58600000e+03
 2.62400000e+03
 2.66100000e+03
 2.69300000e+03
 2.68300000e+03
 2.66200000e+03
 2.60000000e+03
 2.51600000e+03
 2.39200000e+03
 2.25200000e+03
 2.12800000e+03
 2.03200000e+03
 1.94100000e+03
 1.86200000e+03
 1.81800000e+03
 1.81500000e+03
 1.82100000e+03
 1.85800000e+03
 1.92600000e+03
 2.01700000e+03
 2.10800000e+03
 2.20000000e+03
 2.26300000e+03
 2.30000000e+03
 2.33000000e+03
 2.30600000e+03
 2.28900000e+03
 2.25200000e+03
 2.18100000e+03
 2.10300000e+03
 2.03400000e+03
 1.95400000e+03
 1.88700000e+03
 1.84400000e+03
 1.80300000e+03
 1.79300000e+03
 1.81400000e+03
 1.84500000e+03
 1.90400000e+03
 1.99000000e+03
 2.06500000e+03
 2.13700000e+03
 2.19900000e+03
 2.24500000e+03
 2.28200000e+03
 2.28100000e+03
 2.26100000e+03
 2.23200000e+03
 2.16600000e+03
 2.07700000e+03
 2.00300000e+03
 1.92300000e+03
 1.85300000e+03
 1.80600000e+03
 1.78800000e+03
 1.78300000e+03
 1.80100000e+03
 1.82800000e+03
 1.90400000e+03
 1.99800000e+03
 2.09100000e+03
 2.14400000e+03
 2.20000000e+03
 2.24800000e+03
 2.27100000e+03
 2.26800000e+03
 2.27100000e+03
 2.26000000e+03
 2.17300000e+03
 2.07000000e+03
 2.00400000e+03
 1.92700000e+03
 1.86600000e+03
 1.83800000e+03
 1.80200000e+03
 1.79900000e+03
 1.81100000e+03
 1.84200000e+03
 1.93100000e+03
 2.03300000e+03
 2.11100000e+03
 2.18000000e+03
 2.23800000e+03
 2.28500000e+03
 2.32600000e+03
 2.31800000e+03
 2.29900000e+03
 2.27200000e+03
 2.20300000e+03
 2.12800000e+03
 2.05800000e+03
 1.99700000e+03
 1.92100000e+03
 1.85200000e+03
 1.80700000e+03
 1.82900000e+03
 1.87700000e+03
 1.91200000e+03
 1.96500000e+03
 2.03900000e+03
 2.12400000e+03
 2.20800000e+03
 2.27200000e+03
 2.32500000e+03
 2.35400000e+03
 2.35200000e+03
 2.32600000e+03
 2.29200000e+03
 2.22300000e+03
 2.15000000e+03
 2.06700000e+03
 1.99500000e+03
 1.93000000e+03
 1.88300000e+03
 1.83700000e+03
 1.83800000e+03
 1.86200000e+03
 1.90000000e+03
 1.97500000e+03
 2.06100000e+03
 2.15700000e+03
 2.22600000e+03
 2.27800000e+03
 2.33300000e+03
 2.37400000e+03
 2.36600000e+03
 2.34700000e+03
 2.33100000e+03
 2.26500000e+03
 2.18100000e+03
 2.08700000e+03
 2.01600000e+03
 1.95100000e+03
 1.89500000e+03
 1.87500000e+03
 1.87800000e+03
 1.89800000e+03
 1.92300000e+03
 2.00100000e+03
 2.07800000e+03
 2.14900000e+03
 2.22100000e+03
 2.28700000e+03
 2.35900000e+03
 2.37200000e+03
 2.35900000e+03
 2.35600000e+03
 2.34300000e+03
 2.27800000e+03
 2.18600000e+03
 2.10800000e+03
 2.03200000e+03
 1.96100000e+03
 1.92200000e+03
 1.90100000e+03
 1.90100000e+03
 1.92800000e+03
 1.95700000e+03
 2.01100000e+03
 2.09000000e+03
 2.16900000e+03
 2.25100000e+03
 2.30400000e+03
 2.35300000e+03
 2.37700000e+03
 2.38200000e+03
 2.37900000e+03
 2.35400000e+03
 2.29600000e+03
 2.21300000e+03
 2.10400000e+03
 2.02400000e+03
 1.97200000e+03
 1.91200000e+03
 1.88100000e+03
 1.88200000e+03
 1.90700000e+03
 1.96600000e+03
 2.04000000e+03
 2.09700000e+03
 2.18100000e+03
 2.25100000e+03
 2.32300000e+03
 2.38000000e+03
 2.41600000e+03
 2.41500000e+03
 2.38400000e+03
 2.35400000e+03
 2.27800000e+03
 2.20500000e+03
 2.13000000e+03
 2.04700000e+03
 1.98300000e+03
 1.94300000e+03
 1.91900000e+03
 1.91100000e+03
 1.92800000e+03
 1.95600000e+03
 2.03100000e+03
 2.10200000e+03
 2.17600000e+03
 2.26800000e+03
 2.36100000e+03
 2.41900000e+03
 2.44500000e+03
 2.41900000e+03
 2.40200000e+03
 2.38300000e+03
 2.31000000e+03
 2.24600000e+03
 2.16200000e+03
 2.06900000e+03
 2.01000000e+03
 1.97000000e+03
 1.93800000e+03
 1.92200000e+03
 1.92000000e+03
 1.96000000e+03
 2.04300000e+03
 2.12400000e+03
 2.21300000e+03
 2.30500000e+03
 2.38400000e+03
 2.42000000e+03
 2.44800000e+03
 2.45400000e+03
 2.44800000e+03
 2.40600000e+03
 2.32800000e+03
 2.24900000e+03
 2.17300000e+03
 2.10200000e+03
 2.04300000e+03
 1.99400000e+03
 1.96400000e+03
 1.95000000e+03
 1.95100000e+03
 1.98400000e+03
 2.07100000e+03
 2.13400000e+03
 2.20000000e+03
 2.27300000e+03
 2.34600000e+03
 2.41300000e+03
 2.47100000e+03
 2.45800000e+03
 2.43600000e+03
 2.40900000e+03
 2.33700000e+03
 2.26100000e+03
 2.16900000e+03
 2.08000000e+03
 2.01400000e+03
 1.95100000e+03
 1.92600000e+03
 1.92800000e+03
 1.95000000e+03
 1.98900000e+03
 2.04800000e+03
 2.12400000e+03
 2.20500000e+03
 2.28600000e+03
 2.34100000e+03
 2.38900000e+03
 2.42100000e+03
 2.41500000e+03
 2.40400000e+03
 2.37300000e+03
 2.30600000e+03
 2.22200000e+03
 2.15200000e+03
 2.07100000e+03
 2.02500000e+03
 1.95300000e+03
 1.91500000e+03
 1.89900000e+03
 1.92900000e+03
 1.97700000e+03
 2.05000000e+03
 2.11900000e+03
 2.19500000e+03
 2.25600000e+03
 2.32000000e+03
 2.36200000e+03
 2.40300000e+03
 2.42100000e+03
 2.39500000e+03
 2.36000000e+03
 2.28100000e+03
 2.20600000e+03
 2.11600000e+03
 2.03500000e+03
 1.99200000e+03
 1.92500000e+03
 1.88900000e+03
 1.88700000e+03
 1.89400000e+03
 1.93000000e+03
 2.00600000e+03
 2.08700000e+03
 2.16100000e+03
 2.23500000e+03
 2.30500000e+03
 2.36300000e+03
 2.39600000e+03
 2.39300000e+03
 2.37900000e+03
 2.36100000e+03
 2.29700000e+03
 2.20400000e+03
 2.11300000e+03
 2.03600000e+03
 1.97900000e+03
 1.91300000e+03
 1.87200000e+03
 1.87000000e+03
 1.88500000e+03
 1.92000000e+03
 1.98400000e+03
 2.03700000e+03
 2.12900000e+03
 2.21700000e+03
 2.29700000e+03
 2.36200000e+03
 2.39200000e+03
 2.39600000e+03
 2.37500000e+03
 2.32800000e+03
 2.24600000e+03
 2.17400000e+03
 2.08800000e+03
 2.01300000e+03
 1.95600000e+03
 1.90900000e+03
 1.85400000e+03
 1.84400000e+03
 1.87500000e+03
 1.90000000e+03
 1.96400000e+03
 2.03300000e+03
 2.12600000e+03
 2.21100000e+03
 2.28400000e+03
 2.35000000e+03
 2.38400000e+03
 2.37800000e+03
 2.37500000e+03
 2.34300000e+03
 2.26000000e+03
 2.17700000e+03
 2.09500000e+03
 2.02100000e+03
 1.96000000e+03
 1.90100000e+03
 1.85200000e+03
 1.85900000e+03
 1.89500000e+03
 1.91400000e+03
 1.98300000e+03
 2.07400000e+03
 2.14300000e+03
 2.20600000e+03
 2.28000000e+03
 2.32400000e+03
 2.35600000e+03
 2.36500000e+03
 2.35500000e+03
 2.34200000e+03
 2.27800000e+03
 2.19800000e+03
 2.11600000e+03
 2.05000000e+03
 1.99200000e+03
 1.93400000e+03
 1.87900000e+03
 1.86500000e+03
 1.88900000e+03
 1.90900000e+03
 1.98400000e+03
 2.07700000e+03
 2.17600000e+03
 2.25700000e+03
 2.30400000e+03
 2.35200000e+03
 2.39100000e+03
 2.39600000e+03
 2.38300000e+03
 2.36200000e+03
 2.29500000e+03
 2.21600000e+03
 2.13000000e+03
 2.05000000e+03
 1.99300000e+03
 1.92300000e+03
 1.87800000e+03
 1.86200000e+03
 1.89500000e+03
 1.93400000e+03
 2.00600000e+03
 2.06500000e+03
 2.15100000e+03
 2.22200000e+03
 2.29700000e+03
 2.35300000e+03
 2.38300000e+03
 2.38800000e+03
 2.37100000e+03
 2.34000000e+03
 2.28400000e+03
 2.22300000e+03
 2.13600000e+03
 2.07500000e+03
 2.01300000e+03
 1.94600000e+03
 1.88600000e+03
 1.86500000e+03
 1.89800000e+03
 1.93000000e+03
 1.98700000e+03
 2.04200000e+03
 2.14000000e+03
 2.23800000e+03
 2.29900000e+03
 2.35900000e+03
 2.39900000e+03
 2.39000000e+03
 2.37200000e+03
 2.34600000e+03
 2.28100000e+03
 2.20400000e+03
 2.12500000e+03
 2.04400000e+03
 1.97600000e+03
 1.92300000e+03
 1.88700000e+03
 1.88000000e+03
 1.88700000e+03
 1.91100000e+03
 1.98600000e+03
 2.04700000e+03
 2.13300000e+03
 2.22700000e+03
 2.29900000e+03
 2.34500000e+03
 2.38000000e+03
 2.38400000e+03
 2.37900000e+03
 2.36000000e+03
 2.29000000e+03
 2.22200000e+03
 2.13300000e+03
 2.05600000e+03
 2.00200000e+03
 1.94700000e+03
 1.90400000e+03
 1.89600000e+03
 1.91200000e+03
 1.93500000e+03
 2.01000000e+03
 2.07700000e+03
 2.15900000e+03
 2.22900000e+03
 2.29200000e+03
 2.36500000e+03
 2.41000000e+03
 2.42300000e+03
 2.41700000e+03
 2.40200000e+03
 2.32400000e+03
 2.25400000e+03
 2.16700000e+03
 2.09100000e+03
 2.04400000e+03
 1.98200000e+03
 1.94100000e+03
 1.94700000e+03
 1.94900000e+03
 1.97500000e+03
 2.03600000e+03
 2.09600000e+03
 2.18200000e+03
 2.26500000e+03
 2.33200000e+03
 2.40100000e+03
 2.47000000e+03
 2.45100000e+03
 2.42800000e+03
 2.41900000e+03
 2.37100000e+03
 2.30400000e+03
 2.23000000e+03
 2.15600000e+03
 2.09800000e+03
 2.02200000e+03
 1.98100000e+03
 1.97000000e+03
 1.99100000e+03
 2.02200000e+03
 2.09900000e+03
 2.17500000e+03
 2.26900000e+03
 2.33600000e+03
 2.38900000e+03
 2.43100000e+03
 2.48200000e+03
 2.49600000e+03
 2.48000000e+03
 2.46300000e+03
 2.39100000e+03
 2.33000000e+03
 2.23400000e+03
 2.14900000e+03
 2.07900000e+03
 1.99400000e+03
 1.94800000e+03
 1.94000000e+03
 1.97500000e+03
 2.01200000e+03
 2.06700000e+03
 2.13300000e+03
 2.22000000e+03
 2.29400000e+03
 2.37100000e+03
 2.44500000e+03
 2.49300000e+03
 2.50800000e+03
 2.48900000e+03
 2.43200000e+03
 2.35800000e+03
 2.28900000e+03
 2.20000000e+03
 2.13900000e+03
 2.08400000e+03
 2.00800000e+03
 1.95900000e+03
 1.96400000e+03
 1.97200000e+03
 2.00000000e+03
 2.05900000e+03
 2.12200000e+03
 2.22200000e+03
 2.28300000e+03
 2.34500000e+03
 2.42600000e+03
 2.46800000e+03
 2.47900000e+03
 2.47600000e+03
 2.44800000e+03
 2.38300000e+03
 2.31200000e+03
 2.21000000e+03
 2.12300000e+03
 2.06500000e+03
 2.01000000e+03
 1.96200000e+03
 1.95100000e+03
 1.97700000e+03
 2.00600000e+03
 2.07500000e+03
 2.14800000e+03
 2.25300000e+03
 2.31100000e+03
 2.35000000e+03
 2.42600000e+03
 2.49100000e+03
 2.50800000e+03
 2.48200000e+03
 2.44600000e+03
 2.38800000e+03
 2.31900000e+03
 2.24000000e+03
 2.15400000e+03
 2.08500000e+03
 2.02100000e+03
 1.98300000e+03
 1.98700000e+03
 1.99800000e+03
 2.02100000e+03
 2.07000000e+03
 2.14500000e+03
 2.25400000e+03
 2.33700000e+03
 2.41400000e+03
 2.48300000e+03
 2.53000000e+03
 2.55400000e+03
 2.56500000e+03
 2.55300000e+03
 2.50000000e+03
 2.47000000e+03
 2.42400000e+03
 2.38700000e+03
 2.34700000e+03
 2.31600000e+03
 2.31200000e+03
 2.34200000e+03
 2.40700000e+03
 2.48300000e+03
 2.55600000e+03
 2.66800000e+03
 2.81500000e+03
 2.94800000e+03
 3.03800000e+03
 3.10300000e+03
 3.13300000e+03
 3.12300000e+03
 3.09000000e+03
 3.03500000e+03
 2.95200000e+03
 2.85500000e+03
 2.74200000e+03
 2.63400000e+03
 2.54400000e+03
 2.45400000e+03
 2.39500000e+03
 2.36200000e+03
 2.33600000e+03
 2.32000000e+03
 2.34000000e+03
 2.38200000e+03
 2.43000000e+03
 2.45700000e+03
 2.48800000e+03
 2.50700000e+03
 2.55300000e+03
 2.56600000e+03
 2.55000000e+03
 2.50600000e+03
 2.44100000e+03
 2.37700000e+03
 2.29000000e+03
 2.21700000e+03
 2.14000000e+03
 2.06300000e+03
 2.01800000e+03
 1.98700000e+03
 1.99900000e+03
 2.02400000e+03
 2.08200000e+03
 2.14500000e+03
 2.23000000e+03
 2.29100000e+03
 2.35900000e+03
 2.40100000e+03
 2.42400000e+03
 2.43300000e+03
 2.42200000e+03
 2.40300000e+03
 2.36300000e+03
 2.30100000e+03
 2.20100000e+03
 2.11000000e+03
 2.01600000e+03
 1.94700000e+03
 1.91700000e+03
 1.91200000e+03
 1.92100000e+03
 1.94700000e+03
 2.00500000e+03
 2.08000000e+03
 2.17300000e+03
 2.24200000e+03
 2.32000000e+03
 2.37700000e+03
 2.41700000e+03
 2.42700000e+03
 2.41700000e+03
 2.40400000e+03
 2.34300000e+03
 2.26300000e+03
 2.16200000e+03
 2.09800000e+03
 2.03000000e+03
 1.97200000e+03
 1.93900000e+03
 1.92000000e+03
 1.92500000e+03
 1.95600000e+03
 2.01400000e+03
 2.07400000e+03
 2.16800000e+03
 2.23500000e+03
 2.31700000e+03
 2.37700000e+03
 2.42900000e+03
 2.45400000e+03
 2.43500000e+03
 2.39700000e+03
 2.34200000e+03
 2.28500000e+03
 2.20700000e+03
 2.13600000e+03
 2.04900000e+03
 1.98000000e+03
 1.95100000e+03
 1.92200000e+03
 1.93100000e+03
 1.97100000e+03
 2.02600000e+03
 2.09100000e+03
 2.18600000e+03
 2.27200000e+03
 2.35300000e+03
 2.41900000e+03
 2.45100000e+03
 2.45900000e+03
 2.44300000e+03
 2.41800000e+03
 2.37500000e+03
 2.31800000e+03
 2.21900000e+03
 2.13400000e+03
 2.07100000e+03
 2.00300000e+03
 1.95100000e+03
 1.93100000e+03
 1.96000000e+03
 1.99300000e+03
 2.04900000e+03
 2.12400000e+03
 2.20800000e+03
 2.27200000e+03
 2.35200000e+03
 2.42500000e+03
 2.47400000e+03
 2.48600000e+03
 2.46600000e+03
 2.44600000e+03
 2.39900000e+03
 2.33100000e+03
 2.25000000e+03
 2.17100000e+03
 2.10100000e+03
 2.04000000e+03
 2.00000000e+03
 1.98600000e+03
 1.99400000e+03
 2.03300000e+03
 2.08900000e+03
 2.16600000e+03
 2.25800000e+03
 2.32000000e+03
 2.37500000e+03
 2.43400000e+03
 2.48900000e+03
 2.50000000e+03
 2.49600000e+03
 2.47200000e+03
 2.42200000e+03
 2.35400000e+03
 2.25800000e+03
 2.19700000e+03
 2.12100000e+03
 2.04100000e+03
 2.00100000e+03
 1.97400000e+03
 1.99300000e+03
 2.03500000e+03
 2.08500000e+03
 2.16200000e+03
 2.26200000e+03
 2.32900000e+03
 2.41000000e+03
 2.46500000e+03
 2.50300000e+03
 2.51300000e+03
 2.51000000e+03
 2.50300000e+03
 2.44500000e+03
 2.36600000e+03
 2.27100000e+03
 2.19400000e+03
 2.11600000e+03
 2.06100000e+03
 2.02700000e+03
 2.01500000e+03
 2.02500000e+03
 2.05800000e+03
 2.10000000e+03
 2.16600000e+03
 2.27000000e+03
 2.34900000e+03
 2.41900000e+03
 2.47200000e+03
 2.51200000e+03
 2.53300000e+03
 2.52300000e+03
 2.51000000e+03
 2.48100000e+03
 2.41500000e+03
 2.32200000e+03
 2.24700000e+03
 2.16800000e+03
 2.10400000e+03
 2.05800000e+03
 2.04900000e+03
 2.06600000e+03
 2.10100000e+03
 2.14000000e+03
 2.21300000e+03
 2.30600000e+03
 2.38700000e+03
 2.45600000e+03
 2.52200000e+03
 2.56000000e+03
 2.58400000e+03
 2.56400000e+03
 2.53800000e+03
 2.48800000e+03
 2.42800000e+03
 2.34800000e+03
 2.27900000e+03
 2.20800000e+03
 2.13700000e+03
 2.10700000e+03
 2.10300000e+03
 2.12100000e+03
 2.13600000e+03
 2.16900000e+03
 2.23200000e+03
 2.32200000e+03
 2.38800000e+03
 2.46100000e+03
 2.54100000e+03
 2.60000000e+03
 2.59900000e+03
 2.57800000e+03
 2.55300000e+03
 2.50100000e+03
 2.45300000e+03
 2.36700000e+03
 2.30100000e+03
 2.22900000e+03
 2.15700000e+03
 2.09800000e+03
 2.07300000e+03
 2.08300000e+03
 2.11400000e+03
 2.16600000e+03
 2.24300000e+03
 2.33400000e+03
 2.39000000e+03
 2.46700000e+03
 2.52600000e+03
 2.56800000e+03
 2.60000000e+03
 2.59900000e+03
 2.56600000e+03
 2.50500000e+03
 2.43100000e+03
 2.33700000e+03
 2.26700000e+03
 2.20400000e+03
 2.14200000e+03
 2.09000000e+03
 2.03900000e+03
 2.06000000e+03
 2.09400000e+03
 2.13300000e+03
 2.17900000e+03
 2.26800000e+03
 2.34600000e+03
 2.41600000e+03
 2.47500000e+03
 2.52900000e+03
 2.55800000e+03
 2.54700000e+03
 2.52400000e+03
 2.48300000e+03
 2.41100000e+03
 2.31400000e+03
 2.23400000e+03
 2.15300000e+03
 2.09100000e+03
 2.04400000e+03
 2.01600000e+03
 2.02300000e+03
 2.05700000e+03
 2.09400000e+03
 2.15400000e+03
 2.25100000e+03
 2.32200000e+03
 2.38300000e+03
 2.44300000e+03
 2.49500000e+03
 2.51500000e+03
 2.52200000e+03
 2.51000000e+03
 2.44900000e+03
 2.36700000e+03
 2.26700000e+03
 2.19800000e+03
 2.12600000e+03
 2.05200000e+03
 2.00200000e+03
 1.97200000e+03
 2.00000000e+03
 2.04900000e+03
 2.08600000e+03
 2.15100000e+03
 2.23500000e+03
 2.30700000e+03
 2.37200000e+03
 2.42100000e+03
 2.46300000e+03
 2.49200000e+03
 2.48600000e+03
 2.47500000e+03
 2.42200000e+03
 2.35900000e+03
 2.26700000e+03
 2.18400000e+03
 2.11200000e+03
 2.05000000e+03
 2.00400000e+03
 1.97700000e+03
 1.98500000e+03
 2.00200000e+03
 2.03700000e+03
 2.10300000e+03
 2.18600000e+03
 2.27000000e+03
 2.34700000e+03
 2.40700000e+03
 2.45900000e+03
 2.47400000e+03
 2.47600000e+03
 2.45000000e+03
 2.40200000e+03
 2.32400000e+03
 2.25500000e+03
 2.17800000e+03
 2.09100000e+03
 2.02800000e+03
 1.97300000e+03
 1.94500000e+03
 1.95200000e+03
 1.97700000e+03
 2.00900000e+03
 2.08200000e+03
 2.17100000e+03
 2.24600000e+03
 2.31500000e+03
 2.39000000e+03
 2.43400000e+03
 2.46100000e+03
 2.45600000e+03
 2.44000000e+03
 2.39900000e+03
 2.32900000e+03
 2.24200000e+03
 2.16800000e+03
 2.08700000e+03
 2.02600000e+03
 1.96500000e+03
 1.93600000e+03
 1.94500000e+03
 1.97800000e+03
 2.00800000e+03
 2.07600000e+03
 2.16500000e+03
 2.24600000e+03
 2.31000000e+03
 2.38500000e+03
 2.43800000e+03
 2.46800000e+03
 2.44900000e+03
 2.41800000e+03
 2.38400000e+03
 2.32500000e+03
 2.23600000e+03
 2.16900000e+03
 2.08500000e+03
 2.00900000e+03
 1.95100000e+03
 1.91800000e+03
 1.93900000e+03
 1.98500000e+03
 2.02100000e+03
 2.09100000e+03
 2.17800000e+03
 2.26400000e+03
 2.33600000e+03
 2.39900000e+03
 2.43700000e+03
 2.46600000e+03
 2.45000000e+03
 2.42700000e+03
 2.40000000e+03
 2.34200000e+03
 2.26100000e+03
 2.18300000e+03
 2.10600000e+03
 2.03700000e+03
 1.99500000e+03
 1.97000000e+03
 1.97400000e+03
 1.97800000e+03
 2.01600000e+03
 2.08600000e+03
 2.17900000e+03
 2.25100000e+03
 2.32000000e+03
 2.38500000e+03
 2.43400000e+03
 2.46500000e+03
 2.47700000e+03
 2.46700000e+03
 2.42600000e+03
 2.34200000e+03
 2.24800000e+03
 2.16700000e+03
 2.08200000e+03
 2.03400000e+03
 1.98900000e+03
 1.96200000e+03
 1.96300000e+03
 1.98000000e+03
 2.01400000e+03
 2.07700000e+03
 2.17000000e+03
 2.25100000e+03
 2.32500000e+03
 2.39400000e+03
 2.44400000e+03
 2.47900000e+03
 2.47700000e+03
 2.43500000e+03
 2.39700000e+03
 2.34800000e+03
 2.26000000e+03
 2.18300000e+03
 2.10200000e+03
 2.03800000e+03
 1.99200000e+03
 1.95900000e+03
 1.95500000e+03
 1.97700000e+03
 2.02100000e+03
 2.08600000e+03
 2.18600000e+03
 2.27500000e+03
 2.36000000e+03
 2.41200000e+03
 2.45300000e+03
 2.47000000e+03
 2.44800000e+03
 2.44600000e+03
 2.40200000e+03
 2.33700000e+03
 2.24700000e+03
 2.16200000e+03
 2.08000000e+03
 2.02000000e+03
 1.98800000e+03
 1.97100000e+03
 1.96900000e+03
 1.98900000e+03
 2.03500000e+03
 2.11300000e+03
 2.19700000e+03
 2.26100000e+03
 2.32700000e+03
 2.39500000e+03
 2.47100000e+03
 2.51900000e+03
 2.48900000e+03
 2.45400000e+03
 2.41000000e+03
 2.34100000e+03
 2.26900000e+03
 2.19400000e+03
 2.11800000e+03
 2.05900000e+03
 2.00700000e+03
 1.97900000e+03
 1.97100000e+03
 1.98400000e+03
 2.01400000e+03
 2.08000000e+03
 2.16300000e+03
 2.25300000e+03
 2.34600000e+03
 2.41500000e+03
 2.46400000e+03
 2.49500000e+03
 2.49200000e+03
 2.48000000e+03
 2.45500000e+03
 2.39200000e+03
 2.31200000e+03
 2.22700000e+03
 2.13700000e+03
 2.06300000e+03
 2.01800000e+03
 1.97800000e+03
 1.99200000e+03
 2.02300000e+03
 2.06300000e+03
 2.14400000e+03
 2.23100000e+03
 2.31000000e+03
 2.39000000e+03
 2.46400000e+03
 2.51700000e+03
 2.54800000e+03
 2.54300000e+03
 2.52600000e+03
 2.49400000e+03
 2.42600000e+03
 2.35600000e+03
 2.27200000e+03
 2.18700000e+03
 2.12300000e+03
 2.07600000e+03
 2.04400000e+03
 2.05900000e+03
 2.08200000e+03
 2.10800000e+03
 2.18100000e+03
 2.27700000e+03
 2.35400000e+03
 2.42800000e+03
 2.49600000e+03
 2.54700000e+03
 2.57900000e+03
 2.59000000e+03
 2.57200000e+03
 2.53000000e+03
 2.44300000e+03
 2.37000000e+03
 2.30600000e+03
 2.24300000e+03
 2.18400000e+03
 2.11800000e+03
 2.09000000e+03
 2.11000000e+03
 2.12300000e+03
 2.15200000e+03
 2.21600000e+03
 2.30000000e+03
 2.37800000e+03
 2.45400000e+03
 2.51200000e+03
 2.55900000e+03
 2.58600000e+03
 2.58200000e+03
 2.56400000e+03
 2.51600000e+03
 2.43500000e+03
 2.35800000e+03
 2.26900000e+03
 2.19100000e+03
 2.13300000e+03
 2.09200000e+03
 2.07200000e+03
 2.09200000e+03
 2.10500000e+03
 2.13600000e+03
 2.20100000e+03
 2.28500000e+03
 2.36400000e+03
 2.44200000e+03
 2.51200000e+03
 2.57900000e+03
 2.58800000e+03
 2.56900000e+03
 2.54200000e+03
 2.51900000e+03
 2.44700000e+03
 2.36500000e+03
 2.28400000e+03
 2.20000000e+03
 2.14400000e+03
 2.09000000e+03
 2.07400000e+03
 2.07600000e+03
 2.08900000e+03
 2.10300000e+03
 2.18200000e+03
 2.27100000e+03
 2.36400000e+03
 2.44400000e+03
 2.49600000e+03
 2.54600000e+03
 2.57900000e+03
 2.56800000e+03
 2.54500000e+03
 2.52000000e+03
 2.45000000e+03
 2.38600000e+03
 2.31200000e+03
 2.23700000e+03
 2.17700000e+03
 2.12400000e+03
 2.09000000e+03
 2.09300000e+03
 2.10200000e+03
 2.13400000e+03
 2.19700000e+03
 2.27600000e+03
 2.37200000e+03
 2.46500000e+03
 2.51500000e+03
 2.56400000e+03
 2.60600000e+03
 2.60800000e+03
 2.58800000e+03
 2.57300000e+03
 2.50400000e+03
 2.42500000e+03
 2.34500000e+03
 2.25900000e+03
 2.21400000e+03
 2.18000000e+03
 2.15400000e+03
 2.15400000e+03
 2.16500000e+03
 2.21200000e+03
 2.30200000e+03
 2.37200000e+03
 2.45500000e+03
 2.54100000e+03
 2.62300000e+03
 2.71100000e+03
 2.78200000e+03
 2.84400000e+03
 2.86600000e+03
 2.88600000e+03
 2.86900000e+03
 2.83700000e+03
 2.79800000e+03
 2.76400000e+03
 2.74600000e+03
 2.74400000e+03
 2.78600000e+03
 2.82600000e+03
 2.83500000e+03
 2.87500000e+03
 2.96100000e+03
 3.00300000e+03
 3.04000000e+03
 3.11200000e+03
 3.14100000e+03
 3.15700000e+03
 3.15800000e+03
 3.14000000e+03
 3.08800000e+03
 3.01400000e+03
 2.89500000e+03
 2.76800000e+03
 2.65000000e+03
 2.51700000e+03
 2.40100000e+03
 2.32100000e+03
 2.26500000e+03
 2.24500000e+03
 2.23700000e+03
 2.24600000e+03
 2.33000000e+03
 2.41000000e+03
 2.48300000e+03
 2.54700000e+03
 2.62600000e+03
 2.68600000e+03
 2.71700000e+03
 2.70800000e+03
 2.66700000e+03
 2.62200000e+03
 2.54800000e+03
 2.48800000e+03
 2.40900000e+03
 2.31800000e+03
 2.23400000e+03
 2.16900000e+03
 2.14500000e+03
 2.15300000e+03
 2.16900000e+03
 2.20700000e+03
 2.27500000e+03
 2.35100000e+03
 2.43000000e+03
 2.50300000e+03
 2.57100000e+03
 2.62200000e+03
 2.66000000e+03
 2.66400000e+03
 2.63500000e+03
 2.60400000e+03
 2.53800000e+03
 2.47400000e+03
 2.39600000e+03
 2.30200000e+03
 2.22000000e+03
 2.16300000e+03
 2.13900000e+03
 2.15600000e+03
 2.17800000e+03
 2.20900000e+03
 2.27900000e+03
 2.37100000e+03
 2.43800000e+03
 2.51300000e+03
 2.57000000e+03
 2.61100000e+03
 2.65900000e+03
 2.66100000e+03
 2.63900000e+03
 2.59600000e+03
 2.53700000e+03
 2.45900000e+03
 2.38800000e+03
 2.32400000e+03
 2.26400000e+03
 2.19500000e+03
 2.14800000e+03
 2.15000000e+03
 2.18000000e+03
 2.22400000e+03
 2.28200000e+03
 2.35400000e+03
 2.43000000e+03
 2.49900000e+03
 2.55900000e+03
 2.61500000e+03
 2.65000000e+03
 2.65100000e+03
 2.64600000e+03
 2.60900000e+03
 2.54800000e+03
 2.48700000e+03
 2.40400000e+03
 2.32300000e+03
 2.26000000e+03
 2.20700000e+03
 2.16100000e+03
 2.15700000e+03
 2.18600000e+03
 2.22100000e+03
 2.28900000e+03
 2.36100000e+03
 2.45500000e+03
 2.51800000e+03
 2.55600000e+03
 2.61500000e+03
 2.66600000e+03
 2.66600000e+03
 2.65300000e+03
 2.63300000e+03
 2.56800000e+03
 2.48400000e+03
 2.40900000e+03
 2.33200000e+03
 2.25900000e+03
 2.21600000e+03
 2.17300000e+03
 2.16800000e+03
 2.20000000e+03
 2.23600000e+03
 2.29800000e+03
 2.36700000e+03
 2.44800000e+03
 2.52500000e+03
 2.59900000e+03
 2.65600000e+03
 2.68600000e+03
 2.68600000e+03
 2.67100000e+03
 2.64800000e+03
 2.56800000e+03
 2.49300000e+03
 2.40000000e+03
 2.33100000e+03
 2.28000000e+03
 2.21900000e+03
 2.17800000e+03
 2.17600000e+03
 2.21100000e+03
 2.24300000e+03
 2.32200000e+03
 2.39700000e+03
 2.47600000e+03
 2.52500000e+03
 2.57900000e+03
 2.65200000e+03
 2.71000000e+03
 2.72700000e+03
 2.67800000e+03
 2.64100000e+03
 2.58600000e+03
 2.51700000e+03
 2.44100000e+03
 2.35500000e+03
 2.28800000e+03
 2.23400000e+03
 2.19300000e+03
 2.21400000e+03
 2.23600000e+03
 2.25800000e+03
 2.32700000e+03
 2.39700000e+03
 2.46800000e+03
 2.54300000e+03
 2.60600000e+03
 2.65800000e+03
 2.71100000e+03
 2.70900000e+03
 2.68500000e+03
 2.66100000e+03
 2.59400000e+03
 2.51900000e+03
 2.43700000e+03
 2.37400000e+03
 2.32500000e+03
 2.26000000e+03
 2.21600000e+03
 2.21700000e+03
 2.23800000e+03
 2.27900000e+03
 2.34100000e+03
 2.40300000e+03
 2.49200000e+03
 2.55600000e+03
 2.61100000e+03
 2.67300000e+03
 2.72300000e+03
 2.72400000e+03
 2.70700000e+03
 2.66500000e+03
 2.60300000e+03
 2.53400000e+03
 2.44900000e+03
 2.38200000e+03
 2.33100000e+03
 2.26900000e+03
 2.22600000e+03
 2.22500000e+03
 2.24500000e+03
 2.26300000e+03
 2.33600000e+03
 2.40700000e+03
 2.48700000e+03
 2.56600000e+03
 2.63800000e+03
 2.69900000e+03
 2.73900000e+03
 2.74200000e+03
 2.71600000e+03
 2.68100000e+03
 2.61500000e+03
 2.56100000e+03
 2.46600000e+03
 2.37500000e+03
 2.32400000e+03
 2.27600000e+03
 2.23300000e+03
 2.22600000e+03
 2.24300000e+03
 2.26400000e+03
 2.33800000e+03
 2.40500000e+03
 2.48700000e+03
 2.55800000e+03
 2.62200000e+03
 2.68400000e+03
 2.72900000e+03
 2.72300000e+03
 2.70900000e+03
 2.68200000e+03
 2.61100000e+03
 2.53300000e+03
 2.45000000e+03
 2.37500000e+03
 2.32200000e+03
 2.27900000e+03
 2.26500000e+03
 2.23100000e+03
 2.21800000e+03
 2.25000000e+03
 2.32800000e+03
 2.41000000e+03
 2.49700000e+03
 2.55400000e+03
 2.59500000e+03
 2.66400000e+03
 2.71300000e+03
 2.72400000e+03
 2.71200000e+03
 2.65600000e+03
 2.57800000e+03
 2.50400000e+03
 2.42300000e+03
 2.35700000e+03
 2.30600000e+03
 2.24700000e+03
 2.19100000e+03
 2.17000000e+03
 2.18400000e+03
 2.22100000e+03
 2.28300000e+03
 2.33400000e+03
 2.42600000e+03
 2.49500000e+03
 2.55000000e+03
 2.59500000e+03
 2.63800000e+03
 2.63500000e+03
 2.61900000e+03
 2.59800000e+03
 2.55100000e+03
 2.49400000e+03
 2.41700000e+03
 2.32100000e+03
 2.24200000e+03
 2.18300000e+03
 2.15700000e+03
 2.14100000e+03
 2.15100000e+03
 2.16500000e+03
 2.22400000e+03
 2.29600000e+03
 2.38200000e+03
 2.45300000e+03
 2.51400000e+03
 2.58900000e+03
 2.61900000e+03
 2.60700000e+03
 2.59300000e+03
 2.57700000e+03
 2.51300000e+03
 2.42500000e+03
 2.33500000e+03
 2.26000000e+03
 2.19500000e+03
 2.14100000e+03
 2.09600000e+03
 2.08900000e+03
 2.11000000e+03
 2.12000000e+03
 2.18100000e+03
 2.25000000e+03
 2.33400000e+03
 2.41500000e+03
 2.46900000e+03
 2.52200000e+03
 2.57400000e+03
 2.58900000e+03
 2.57000000e+03
 2.53400000e+03
 2.46600000e+03
 2.40100000e+03
 2.31500000e+03
 2.24800000e+03
 2.18100000e+03
 2.12300000e+03
 2.07900000e+03
 2.09000000e+03
 2.12100000e+03
 2.13300000e+03
 2.16800000e+03
 2.22400000e+03
 2.31200000e+03
 2.38200000e+03
 2.44200000e+03
 2.51000000e+03
 2.55200000e+03
 2.56800000e+03
 2.53800000e+03
 2.51900000e+03
 2.46700000e+03
 2.39300000e+03
 2.28900000e+03
 2.22200000e+03
 2.16700000e+03
 2.08600000e+03
 2.03800000e+03
 2.04000000e+03
 2.06400000e+03
 2.07400000e+03
 2.15400000e+03
 2.23600000e+03
 2.32300000e+03
 2.39100000e+03
 2.43700000e+03
 2.51500000e+03
 2.55600000e+03
 2.56000000e+03
 2.54700000e+03
 2.51100000e+03
 2.44200000e+03
 2.37700000e+03
 2.28000000e+03
 2.21200000e+03
 2.16800000e+03
 2.10300000e+03
 2.05500000e+03
 2.04100000e+03
 2.06800000e+03
 2.10300000e+03
 2.14900000e+03
 2.21200000e+03
 2.30200000e+03
 2.36600000e+03
 2.42100000e+03
 2.48200000e+03
 2.53700000e+03
 2.55400000e+03
 2.52600000e+03
 2.49900000e+03
 2.44900000e+03
 2.39800000e+03
 2.31500000e+03
 2.23700000e+03
 2.15700000e+03
 2.08200000e+03
 2.03600000e+03
 2.03900000e+03
 2.05500000e+03
 2.09000000e+03
 2.14600000e+03
 2.19900000e+03
 2.28000000e+03
 2.35200000e+03
 2.41000000e+03
 2.48100000e+03
 2.52000000e+03
 2.52900000e+03
 2.52400000e+03
 2.48300000e+03
 2.42900000e+03
 2.36500000e+03
 2.28700000e+03
 2.20900000e+03
 2.14200000e+03
 2.06600000e+03
 2.02200000e+03
 2.02100000e+03
 2.03700000e+03
 2.07600000e+03
 2.14100000e+03
 2.19300000e+03
 2.28300000e+03
 2.35200000e+03
 2.40700000e+03
 2.47500000e+03
 2.51800000e+03
 2.51200000e+03
 2.49600000e+03
 2.47500000e+03
 2.40900000e+03
 2.35300000e+03
 2.28900000e+03
 2.19800000e+03
 2.12500000e+03
 2.06500000e+03
 2.02200000e+03
 2.00200000e+03
 2.00800000e+03
 2.03000000e+03
 2.10200000e+03
 2.18600000e+03
 2.28600000e+03
 2.35600000e+03
 2.40100000e+03
 2.45500000e+03
 2.48300000e+03
 2.48700000e+03
 2.46800000e+03
 2.43500000e+03
 2.38400000e+03
 2.32400000e+03
 2.23100000e+03
 2.17100000e+03
 2.10500000e+03
 2.04800000e+03
 2.00900000e+03
 1.98800000e+03
 2.00400000e+03
 2.03400000e+03
 2.09500000e+03
 2.15500000e+03
 2.25600000e+03
 2.34100000e+03
 2.39100000e+03
 2.41800000e+03
 2.45400000e+03
 2.48100000e+03
 2.47300000e+03
 2.43300000e+03
 2.37500000e+03
 2.30600000e+03
 2.22500000e+03
 2.15400000e+03
 2.08400000e+03
 2.01000000e+03
 1.96900000e+03
 1.96700000e+03
 1.99300000e+03
 2.03200000e+03
 2.07800000e+03
 2.13300000e+03
 2.20900000e+03
 2.27300000e+03
 2.34100000e+03
 2.41000000e+03
 2.46000000e+03
 2.46800000e+03
 2.44600000e+03
 2.42000000e+03
 2.36800000e+03
 2.29500000e+03
 2.20800000e+03
 2.13700000e+03
 2.06700000e+03
 2.00400000e+03
 1.96700000e+03
 1.95700000e+03
 1.96100000e+03
 1.97100000e+03
 2.04500000e+03
 2.13000000e+03
 2.19600000e+03
 2.25100000e+03
 2.31900000e+03
 2.37200000e+03
 2.43800000e+03
 2.45800000e+03
 2.44700000e+03
 2.41600000e+03
 2.35800000e+03
 2.31100000e+03
 2.23500000e+03
 2.17100000e+03
 2.08600000e+03
 2.01900000e+03
 1.97100000e+03
 1.96800000e+03
 2.00700000e+03
 2.03600000e+03
 2.08600000e+03
 2.13800000e+03
 2.23300000e+03
 2.30400000e+03
 2.35900000e+03
 2.42800000e+03
 2.47400000e+03
 2.50000000e+03
 2.49000000e+03
 2.46400000e+03
 2.40600000e+03
 2.35000000e+03
 2.26700000e+03
 2.18400000e+03
 2.12200000e+03
 2.06100000e+03
 2.02000000e+03
 2.00500000e+03
 2.00900000e+03
 2.03300000e+03
 2.09300000e+03
 2.16400000e+03
 2.24800000e+03
 2.30100000e+03
 2.37400000e+03
 2.42900000e+03
 2.47200000e+03
 2.50400000e+03
 2.49700000e+03
 2.47400000e+03
 2.42900000e+03
 2.36900000e+03
 2.28500000e+03
 2.21400000e+03
 2.12400000e+03
 2.05800000e+03
 2.01300000e+03
 2.01500000e+03
 2.02300000e+03
 2.04800000e+03
 2.10900000e+03
 2.16000000e+03
 2.24700000e+03
 2.31500000e+03
 2.37600000e+03
 2.43000000e+03
 2.46300000e+03
 2.49500000e+03
 2.48800000e+03
 2.45100000e+03
 2.37600000e+03
 2.30900000e+03
 2.21800000e+03
 2.14400000e+03
 2.07100000e+03
 1.98800000e+03
 1.93600000e+03
 1.91000000e+03
 1.93300000e+03
 1.95800000e+03
 2.01700000e+03
 2.08500000e+03
 2.15400000e+03
 2.21800000e+03
 2.28600000e+03
 2.34800000e+03
 2.38400000e+03
 2.39100000e+03
 2.37500000e+03
 2.34600000e+03
 2.30200000e+03
 2.25100000e+03
 2.15700000e+03
 2.07600000e+03
 2.03000000e+03
 1.96100000e+03
 1.89100000e+03
 1.85400000e+03
 1.86200000e+03
 1.90200000e+03
 1.98400000e+03
 2.06000000e+03
 2.13800000e+03
 2.19100000e+03
 2.24000000e+03
 2.28300000e+03
 2.34600000e+03
 2.36200000e+03
 2.34700000e+03
 2.30900000e+03
 2.25900000e+03
 2.19700000e+03
 2.10500000e+03
 2.04300000e+03
 1.96700000e+03
 1.89900000e+03
 1.85600000e+03
 1.83800000e+03
 1.84500000e+03
 1.86500000e+03
 1.92400000e+03
 1.97700000e+03
 2.05000000e+03
 2.11500000e+03
 2.18700000e+03
 2.24400000e+03
 2.29100000e+03
 2.30900000e+03
 2.28600000e+03
 2.26300000e+03
 2.23200000e+03
 2.17300000e+03
 2.06700000e+03
 1.98900000e+03
 1.92300000e+03
 1.86500000e+03
 1.83700000e+03
 1.81700000e+03
 1.82800000e+03
 1.86400000e+03
 1.91300000e+03
 1.97200000e+03
 2.07700000e+03
 2.14900000e+03
 2.21700000e+03
 2.28900000e+03
 2.34100000e+03
 2.35800000e+03
 2.35500000e+03
 2.35400000e+03
 2.33600000e+03
 2.29600000e+03
 2.24300000e+03
 2.23000000e+03
 2.19800000e+03
 2.18100000e+03
 2.17700000e+03
 2.19800000e+03
 2.25200000e+03
 2.32700000e+03
 2.42400000e+03
 2.55500000e+03
 2.68800000e+03
 2.76600000e+03
 2.84300000e+03
 2.89100000e+03
 2.92100000e+03
 2.90600000e+03
 2.86600000e+03
 2.80300000e+03
 2.70800000e+03
 2.62000000e+03
 2.51700000e+03
 2.44200000e+03
 2.34600000e+03
 2.23600000e+03
 2.12400000e+03
 2.03500000e+03
 1.99300000e+03
 1.97500000e+03
 1.97800000e+03
 1.99000000e+03
 2.05500000e+03
 2.13000000e+03
 2.19300000e+03
 2.24700000e+03
 2.29200000e+03
 2.30700000e+03
 2.30800000e+03
 2.27800000e+03
 2.23100000e+03
 2.15900000e+03
 2.05700000e+03
 1.97100000e+03
 1.88600000e+03
 1.81400000e+03
 1.77000000e+03
 1.73600000e+03
 1.74400000e+03
 1.77500000e+03
 1.82300000e+03
 1.87700000e+03
 1.95400000e+03
 2.02100000e+03
 2.07900000e+03
 2.13500000e+03
 2.18100000e+03
 2.20300000e+03
 2.20800000e+03
 2.18300000e+03
 2.12000000e+03
 2.04400000e+03
 1.95800000e+03
 1.89800000e+03
 1.82500000e+03
 1.76000000e+03
 1.72000000e+03
 1.69400000e+03
 1.69300000e+03
 1.70200000e+03
 1.74100000e+03
 1.82800000e+03
 1.93100000e+03
 1.99300000e+03
 2.05300000e+03
 2.10200000e+03
 2.14600000e+03
 2.16300000e+03
 2.17100000e+03
 2.14900000e+03
 2.09100000e+03
 2.03000000e+03
 1.94000000e+03
 1.87100000e+03
 1.79300000e+03
 1.73300000e+03
 1.69400000e+03
 1.67100000e+03
 1.68300000e+03
 1.71300000e+03
 1.75000000e+03
 1.79300000e+03
 1.89000000e+03
 1.96600000e+03
 2.03900000e+03
 2.09800000e+03
 2.15100000e+03
 2.17300000e+03
 2.17600000e+03
 2.15900000e+03
 2.11700000e+03
 2.03400000e+03
 1.95700000e+03
 1.89600000e+03
 1.82200000e+03
 1.75400000e+03
 1.71200000e+03
 1.68900000e+03
 1.69500000e+03
 1.71700000e+03
 1.76000000e+03
 1.83000000e+03
 1.91500000e+03
 1.98700000e+03
 2.04400000e+03
 2.12100000e+03
 2.16100000e+03
 2.19700000e+03
 2.19500000e+03
 2.15900000e+03
 2.11100000e+03
 2.05400000e+03
 1.97100000e+03
 1.88900000e+03
 1.82400000e+03
 1.75900000e+03
 1.71600000e+03
 1.70100000e+03
 1.71900000e+03
 1.74300000e+03
 1.79100000e+03
 1.85600000e+03
 1.93900000e+03
 2.00400000e+03
 2.09100000e+03
 2.15000000e+03
 2.20000000e+03
 2.22800000e+03
 2.20900000e+03
 2.18700000e+03
 2.15700000e+03
 2.08000000e+03
 1.98200000e+03
 1.91100000e+03
 1.84600000e+03
 1.79800000e+03
 1.75000000e+03
 1.72800000e+03
 1.73600000e+03
 1.76100000e+03
 1.81200000e+03
 1.89200000e+03
 1.97900000e+03
 2.05400000e+03
 2.11600000e+03
 2.16900000e+03
 2.22800000e+03
 2.26600000e+03
 2.25800000e+03
 2.23900000e+03
 2.20000000e+03
 2.12500000e+03
 2.05900000e+03
 1.98100000e+03
 1.91500000e+03
 1.83400000e+03
 1.77500000e+03
 1.75200000e+03
 1.77600000e+03
 1.81100000e+03
 1.84300000e+03
 1.90200000e+03
 1.99100000e+03
 2.07700000e+03
 2.14100000e+03
 2.21600000e+03
 2.26300000e+03
 2.29300000e+03
 2.27700000e+03
 2.27600000e+03
 2.24300000e+03
 2.17500000e+03
 2.09200000e+03
 2.02700000e+03
 1.95600000e+03
 1.87700000e+03
 1.82300000e+03
 1.81400000e+03
 1.82900000e+03
 1.86700000e+03
 1.91000000e+03
 1.97200000e+03
 2.05500000e+03
 2.13400000e+03
 2.20400000e+03
 2.27100000e+03
 2.34300000e+03
 2.36100000e+03
 2.34000000e+03
 2.31300000e+03
 2.28500000e+03
 2.21600000e+03
 2.12600000e+03
 2.05300000e+03
 1.99600000e+03
 1.94100000e+03
 1.89000000e+03
 1.87200000e+03
 1.88400000e+03
 1.89800000e+03
 1.94000000e+03
 2.03000000e+03
 2.12000000e+03
 2.20200000e+03
 2.28100000e+03
 2.34800000e+03
 2.38600000e+03
 2.40000000e+03
 2.39200000e+03
 2.37600000e+03
 2.34500000e+03
 2.28300000e+03
 2.19900000e+03
 2.11800000e+03
 2.02900000e+03
 1.98500000e+03
 1.94800000e+03
 1.92100000e+03
 1.91300000e+03
 1.93100000e+03
 1.97400000e+03
 2.05600000e+03
 2.15200000e+03
 2.22300000e+03
 2.28500000e+03
 2.34100000e+03
 2.39900000e+03
 2.43500000e+03
 2.43300000e+03
 2.41100000e+03
 2.36000000e+03
 2.29200000e+03
 2.19600000e+03
 2.12600000e+03
 2.06300000e+03
 2.01100000e+03
 1.95300000e+03
 1.91700000e+03
 1.93100000e+03
 1.94600000e+03
 1.98800000e+03
 2.05300000e+03
 2.13600000e+03
 2.21900000e+03
 2.28800000e+03
 2.33900000e+03
 2.39600000e+03
 2.43600000e+03
 2.43100000e+03
 2.40900000e+03
 2.35800000e+03
 2.27500000e+03
 2.19000000e+03
 2.11700000e+03
 2.04300000e+03
 1.98500000e+03
 1.93800000e+03
 1.89000000e+03
 1.89700000e+03
 1.92800000e+03
 1.95200000e+03
 2.02300000e+03
 2.09800000e+03
 2.17300000e+03
 2.25900000e+03
 2.32700000e+03
 2.36600000e+03
 2.39800000e+03
 2.40000000e+03
 2.38000000e+03
 2.34400000e+03
 2.27500000e+03
 2.17000000e+03
 2.07800000e+03
 1.99400000e+03
 1.92300000e+03
 1.89100000e+03
 1.86800000e+03
 1.87100000e+03
 1.89600000e+03
 1.91200000e+03
 1.98800000e+03
 2.08500000e+03
 2.15900000e+03
 2.24900000e+03
 2.30900000e+03
 2.36900000e+03
 2.38400000e+03
 2.36500000e+03
 2.34300000e+03
 2.30700000e+03
 2.23600000e+03
 2.15200000e+03
 2.07000000e+03
 1.99000000e+03
 1.92100000e+03
 1.87600000e+03
 1.85900000e+03
 1.87100000e+03
 1.90000000e+03
 1.93000000e+03
 1.99300000e+03
 2.06700000e+03
 2.13400000e+03
 2.21000000e+03
 2.29200000e+03
 2.34400000e+03
 2.37600000e+03
 2.35300000e+03
 2.33500000e+03
 2.30700000e+03
 2.23800000e+03
 2.17000000e+03
 2.08600000e+03
 1.99400000e+03
 1.92200000e+03
 1.87100000e+03
 1.83900000e+03
 1.85000000e+03
 1.86200000e+03
 1.90300000e+03
 1.98700000e+03
 2.07500000e+03
 2.15500000e+03
 2.22600000e+03
 2.27800000e+03
 2.33200000e+03
 2.36800000e+03
 2.35200000e+03
 2.33100000e+03
 2.31900000e+03
 2.24000000e+03
 2.15800000e+03
 2.08300000e+03
 2.00200000e+03
 1.94400000e+03
 1.89600000e+03
 1.87400000e+03
 1.87700000e+03
 1.90400000e+03
 1.93200000e+03
 1.99700000e+03
 2.08900000e+03
 2.17600000e+03
 2.26200000e+03
 2.31000000e+03
 2.35600000e+03
 2.38300000e+03
 2.38400000e+03
 2.36700000e+03
 2.34200000e+03
 2.26200000e+03
 2.18400000e+03
 2.11100000e+03
 2.04500000e+03
 1.97800000e+03
 1.92300000e+03
 1.89800000e+03
 1.91800000e+03
 1.93400000e+03
 1.94800000e+03
 2.02800000e+03
 2.12100000e+03
 2.19000000e+03
 2.26800000e+03
 2.33600000e+03
 2.38200000e+03
 2.41000000e+03
 2.40600000e+03
 2.39000000e+03
 2.37300000e+03
 2.30500000e+03
 2.21500000e+03
 2.13600000e+03
 2.05300000e+03
 1.99100000e+03
 1.93600000e+03
 1.90600000e+03
 1.90400000e+03
 1.92700000e+03
 1.95900000e+03
 2.03400000e+03
 2.12600000e+03
 2.21100000e+03
 2.30200000e+03
 2.36400000e+03
 2.41300000e+03
 2.44500000e+03
 2.45200000e+03
 2.44700000e+03
 2.41700000e+03
 2.32200000e+03
 2.24500000e+03
 2.16200000e+03
 2.08900000e+03
 2.04200000e+03
 1.99700000e+03
 1.95900000e+03
 1.95400000e+03
 1.96100000e+03
 1.99800000e+03
 2.07100000e+03
 2.16300000e+03
 2.24500000e+03
 2.33000000e+03
 2.38400000e+03
 2.45100000e+03
 2.48600000e+03
 2.48100000e+03
 2.45000000e+03
 2.41400000e+03
 2.34800000e+03
 2.27300000e+03
 2.19800000e+03
 2.12500000e+03
 2.06800000e+03
 2.01900000e+03
 1.98500000e+03
 1.98000000e+03
 2.00600000e+03
 2.03300000e+03
 2.09300000e+03
 2.18500000e+03
 2.27100000e+03
 2.33700000e+03
 2.40000000e+03
 2.44900000e+03
 2.48300000e+03
 2.47600000e+03
 2.46600000e+03
 2.45000000e+03
 2.40200000e+03
 2.31800000e+03
 2.21800000e+03
 2.12700000e+03
 2.08100000e+03
 2.04500000e+03
 2.01200000e+03
 1.99000000e+03
 1.99800000e+03
 2.04300000e+03
 2.12900000e+03
 2.21300000e+03
 2.29500000e+03
 2.36500000e+03
 2.42500000e+03
 2.47600000e+03
 2.51700000e+03
 2.52600000e+03
 2.51700000e+03
 2.49600000e+03
 2.42300000e+03
 2.32300000e+03
 2.24000000e+03
 2.15800000e+03
 2.09900000e+03
 2.03900000e+03
 2.01200000e+03
 2.01900000e+03
 2.03200000e+03
 2.05900000e+03
 2.13600000e+03
 2.22600000e+03
 2.31500000e+03
 2.38200000e+03
 2.43700000e+03
 2.48400000e+03
 2.51900000e+03
 2.52500000e+03
 2.51900000e+03
 2.48300000e+03
 2.43400000e+03
 2.37000000e+03
 2.28300000e+03
 2.20300000e+03
 2.14100000e+03
 2.07600000e+03
 2.03200000e+03
 2.02800000e+03
 2.03200000e+03
 2.06200000e+03
 2.15200000e+03
 2.23200000e+03
 2.30800000e+03
 2.38900000e+03
 2.45900000e+03
 2.50800000e+03
 2.53800000e+03
 2.54600000e+03
 2.53900000e+03
 2.51500000e+03
 2.45600000e+03
 2.38000000e+03
 2.30500000e+03
 2.21500000e+03
 2.12300000e+03
 2.06100000e+03
 2.03300000e+03
 2.06200000e+03
 2.08000000e+03
 2.11000000e+03
 2.17500000e+03
 2.24800000e+03
 2.33200000e+03
 2.41500000e+03
 2.49000000e+03
 2.54500000e+03
 2.57500000e+03
 2.58000000e+03
 2.58400000e+03
 2.55700000e+03
 2.47800000e+03
 2.39300000e+03
 2.30800000e+03
 2.23100000e+03
 2.17800000e+03
 2.13300000e+03
 2.09700000e+03
 2.08900000e+03
 2.12400000e+03
 2.16600000e+03
 2.23100000e+03
 2.31000000e+03
 2.38500000e+03
 2.44300000e+03
 2.52000000e+03
 2.58200000e+03
 2.61200000e+03
 2.62300000e+03
 2.61800000e+03
 2.59700000e+03
 2.53000000e+03
 2.45300000e+03
 2.36700000e+03
 2.29900000e+03
 2.24200000e+03
 2.20400000e+03
 2.16200000e+03
 2.14300000e+03
 2.16000000e+03
 2.20700000e+03
 2.29700000e+03
 2.37200000e+03
 2.45100000e+03
 2.52100000e+03
 2.58600000e+03
 2.62700000e+03
 2.65100000e+03
 2.67000000e+03
 2.67100000e+03
 2.64300000e+03
 2.55800000e+03
 2.47700000e+03
 2.38000000e+03
 2.28900000e+03
 2.20900000e+03
 2.15500000e+03
 2.11400000e+03
 2.12100000e+03
 2.13800000e+03
 2.16800000e+03
 2.24700000e+03
 2.32300000e+03
 2.40000000e+03
 2.48500000e+03
 2.53900000e+03
 2.59500000e+03
 2.63100000e+03
 2.62400000e+03
 2.60200000e+03
 2.57500000e+03
 2.51900000e+03
 2.44700000e+03
 2.35700000e+03
 2.26200000e+03
 2.21200000e+03
 2.17600000e+03
 2.14300000e+03
 2.12800000e+03
 2.13600000e+03
 2.14900000e+03
 2.24000000e+03
 2.34300000e+03
 2.42300000e+03
 2.48700000e+03
 2.54600000e+03
 2.59700000e+03
 2.63800000e+03
 2.63900000e+03
 2.62600000e+03
 2.58500000e+03
 2.50200000e+03
 2.43200000e+03
 2.35100000e+03
 2.27500000e+03
 2.22500000e+03
 2.16800000e+03
 2.12000000e+03
 2.11400000e+03
 2.13800000e+03
 2.17900000e+03
 2.25100000e+03
 2.32200000e+03
 2.40300000e+03
 2.47900000e+03
 2.54100000e+03
 2.60000000e+03
 2.63500000e+03
 2.64500000e+03
 2.63100000e+03
 2.60600000e+03
 2.53100000e+03
 2.44200000e+03
 2.36900000e+03
 2.30200000e+03
 2.25100000e+03
 2.20400000e+03
 2.14500000e+03
 2.13800000e+03
 2.17200000e+03
 2.20300000e+03
 2.28300000e+03
 2.36600000e+03
 2.46100000e+03
 2.53000000e+03
 2.58000000e+03
 2.65100000e+03
 2.70500000e+03
 2.73400000e+03
 2.71800000e+03
 2.69800000e+03
 2.67900000e+03
 2.63700000e+03
 2.58000000e+03
 2.56300000e+03
 2.55600000e+03
 2.53800000e+03
 2.51900000e+03
 2.55100000e+03
 2.61900000e+03
 2.67500000e+03
 2.79000000e+03
 2.91700000e+03
 3.05600000e+03
 3.13100000e+03
 3.18900000e+03
 3.23000000e+03
 3.25100000e+03
 3.22400000e+03
 3.18000000e+03
 3.13200000e+03
 3.04000000e+03
 2.93200000e+03
 2.82100000e+03
 2.74000000e+03
 2.67700000e+03
 2.58700000e+03
 2.50100000e+03
 2.48300000e+03
 2.47700000e+03
 2.44700000e+03
 2.44800000e+03
 2.47700000e+03
 2.54300000e+03
 2.58800000e+03
 2.60500000e+03
 2.64900000e+03
 2.69600000e+03
 2.69000000e+03
 2.68200000e+03
 2.65800000e+03
 2.59400000e+03
 2.52000000e+03
 2.42200000e+03
 2.33900000e+03
 2.27000000e+03
 2.20100000e+03
 2.15900000e+03
 2.13800000e+03
 2.16600000e+03
 2.20000000e+03
 2.24700000e+03
 2.31900000e+03
 2.39600000e+03
 2.46200000e+03
 2.51300000e+03
 2.57800000e+03
 2.61400000e+03
 2.61900000e+03
 2.61400000e+03
 2.58000000e+03
 2.51500000e+03
 2.44600000e+03
 2.35500000e+03
 2.28100000e+03
 2.21400000e+03
 2.13700000e+03
 2.09500000e+03
 2.09600000e+03
 2.13100000e+03
 2.14500000e+03
 2.20300000e+03
 2.28800000e+03
 2.36600000e+03
 2.44600000e+03
 2.50300000e+03
 2.55100000e+03
 2.59900000e+03
 2.60600000e+03
 2.59500000e+03
 2.56300000e+03
 2.48500000e+03
 2.42400000e+03
 2.35700000e+03
 2.29600000e+03
 2.23600000e+03
 2.16100000e+03
 2.09900000e+03
 2.09800000e+03
 2.10600000e+03
 2.13600000e+03
 2.21200000e+03
 2.26600000e+03
 2.35200000e+03
 2.42100000e+03
 2.47800000e+03
 2.53300000e+03
 2.56600000e+03
 2.57000000e+03
 2.55800000e+03
 2.54100000e+03
 2.47900000e+03
 2.41300000e+03
 2.32900000e+03
 2.25200000e+03
 2.19600000e+03
 2.14100000e+03
 2.10000000e+03
 2.09700000e+03
 2.09500000e+03
 2.11000000e+03
 2.17200000e+03
 2.23900000e+03
 2.32000000e+03
 2.38500000e+03
 2.45300000e+03
 2.51800000e+03
 2.56200000e+03
 2.56800000e+03
 2.56600000e+03
 2.54300000e+03
 2.46300000e+03
 2.38300000e+03
 2.30400000e+03
 2.24300000e+03
 2.16800000e+03
 2.08400000e+03
 2.04600000e+03
 2.05700000e+03
 2.07000000e+03
 2.11000000e+03
 2.17300000e+03
 2.22700000e+03
 2.32100000e+03
 2.39200000e+03
 2.44900000e+03
 2.50800000e+03
 2.54100000e+03
 2.56200000e+03
 2.55000000e+03
 2.52300000e+03
 2.47100000e+03
 2.39300000e+03
 2.30100000e+03
 2.23400000e+03
 2.17500000e+03
 2.10600000e+03
 2.06200000e+03
 2.04700000e+03
 2.07500000e+03
 2.10700000e+03
 2.17800000e+03
 2.23600000e+03
 2.31800000e+03
 2.39800000e+03
 2.46300000e+03
 2.51400000e+03
 2.56000000e+03
 2.57000000e+03
 2.55900000e+03
 2.54200000e+03
 2.48000000e+03
 2.40300000e+03
 2.32100000e+03
 2.25500000e+03
 2.19400000e+03
 2.12700000e+03
 2.09300000e+03
 2.08600000e+03
 2.10600000e+03
 2.13200000e+03
 2.19800000e+03
 2.26000000e+03
 2.34900000e+03
 2.42400000e+03
 2.48300000e+03
 2.55400000e+03
 2.59800000e+03
 2.60900000e+03
 2.58500000e+03
 2.54800000e+03
 2.49000000e+03
 2.43900000e+03
 2.36200000e+03
 2.29900000e+03
 2.24800000e+03
